time_s,rppg,ppg
1762522844.021771,0.234328,-0.921630
1762522844.055104,-0.044154,-0.921630
1762522844.088438,-0.553850,-0.921630
1762522844.121772,-1.208614,-0.921630
1762522844.155105,-1.733515,-0.921630
1762522844.188439,-1.898803,-0.770953
1762522844.221772,-1.482981,-0.486978
1762522844.255106,-0.597259,-0.121001
1762522844.288440,0.606604,0.271948
1762522844.321773,1.673290,0.637544
1762522844.355107,2.383700,0.923672
1762522844.388441,2.449920,1.083695
1762522844.421774,2.037496,1.084265
1762522844.455108,1.294114,0.916211
1762522844.488441,0.583503,0.603105
1762522844.521775,-0.033098,0.201312
1762522844.555109,-0.436520,-0.211402
1762522844.588443,-0.810100,-0.555983
1762522844.621776,-1.097972,-0.773261
1762522844.655110,-1.350039,-0.837550
1762522844.688443,-1.390151,-0.757657
1762522844.721777,-1.190314,-0.566650
1762522844.755111,-0.656600,-0.307111
1762522844.788444,0.032449,-0.019815
1762522844.821778,0.743277,0.259696
1762522844.855112,1.136623,0.498186
1762522844.888445,1.242795,0.661471
1762522844.921779,1.012699,0.716963
1762522844.955112,0.731574,0.643690
1762522844.988446,0.412323,0.445303
1762522845.021780,0.203162,0.157877
1762522845.055113,-0.113217,-0.154288
1762522845.088447,-0.495398,-0.415741
1762522845.121781,-1.048445,-0.563710
1762522845.155114,-1.522069,-0.568569
1762522845.188448,-1.752774,-0.442238
1762522845.221781,-1.425147,-0.231658
1762522845.255115,-0.613210,-0.001354
1762522845.288449,0.535241,0.186730
1762522845.321782,1.482107,0.288478
1762522845.355116,1.916496,0.284407
1762522845.388450,1.516252,0.179240
1762522845.421783,0.535156,-0.002179
1762522845.455117,-0.735225,-0.219949
1762522845.488451,-1.713715,-0.424968
1762522845.521784,-2.159221,-0.567035
1762522845.555118,-1.869963,-0.605810
1762522845.588451,-1.110071,-0.522536
1762522845.621785,-0.113843,-0.327911
1762522845.655119,0.705011,-0.061472
1762522845.688452,1.195202,0.219104
1762522845.721786,1.268160,0.455689
1762522845.755120,1.098683,0.607567
1762522845.788453,0.794563,0.662331
1762522845.821787,0.507404,0.635806
1762522845.855120,0.273333,0.562009
1762522845.888454,0.219525,0.478257
1762522845.921788,0.261670,0.411815
1762522845.955121,0.402278,0.372816
1762522845.988455,0.487229,0.354746
1762522846.021789,0.563520,0.340592
1762522846.055122,0.538468,0.311206
1762522846.088456,0.451382,0.252586
1762522846.121789,0.241363,0.160069
1762522846.155123,0.037944,0.038862
1762522846.188457,-0.198928,-0.098508
1762522846.221790,-0.372553,-0.236620
1762522846.255124,-0.537668,-0.361965
1762522846.288458,-0.644647,-0.466538
1762522846.321791,-0.743407,-0.548869
1762522846.355125,-0.784800,-0.612002
1762522846.388458,-0.783058,-0.659236
1762522846.421792,-0.760864,-0.689623
1762522846.455126,-0.736615,-0.695510
1762522846.488459,-0.765721,-0.663473
1762522846.521793,-0.813595,-0.578416
1762522846.555127,-0.839253,-0.429183
1762522846.588460,-0.765120,-0.213592
1762522846.621794,-0.505114,0.058493
1762522846.655128,-0.047144,0.364377
1762522846.688461,0.592385,0.669656
1762522846.721795,1.212364,0.931143
1762522846.755129,1.728452,1.102172
1762522846.788462,1.938467,1.141048
1762522846.821796,1.841384,1.022259
1762522846.855129,1.416702,0.747809
1762522846.888463,0.778815,0.354000
1762522846.921797,-0.022150,-0.090975
1762522846.955130,-0.856462,-0.500418
1762522846.988464,-1.599183,-0.790506
1762522847.021798,-2.088887,-0.902559
1762522847.055131,-2.160497,-0.818068
1762522847.088465,-1.679848,-0.561350
1762522847.121799,-0.720466,-0.190081
1762522847.155132,0.540118,0.221131
1762522847.188466,1.659375,0.597297
1762522847.221799,2.372206,0.874893
1762522847.255133,2.422777,1.008193
1762522847.288467,1.897472,0.972519
1762522847.321800,0.977651,0.767142
1762522847.355134,0.073820,0.418162
1762522847.388468,-0.598830,-0.021328
1762522847.421801,-0.963725,-0.477391
1762522847.455135,-1.140729,-0.869162
1762522847.488468,-1.293764,-1.127650
1762522847.521802,-1.483517,-1.212892
1762522847.555136,-1.699403,-1.122418
1762522847.588469,-1.734332,-0.887577
1762522847.621803,-1.404509,-0.559922
1762522847.655137,-0.687264,-0.194493
1762522847.688470,0.298428,0.162508
1762522847.721804,1.193564,0.477582
1762522847.755137,1.739811,0.726732
1762522847.788471,1.765273,0.890567
1762522847.821805,1.423767,0.953228
1762522847.855138,0.844029,0.907025
1762522847.888472,0.367021,0.759796
1762522847.921806,0.112016,0.539226
1762522847.955139,0.055030,0.289497
1762522847.988473,0.030517,0.059876
1762522848.021806,-0.036589,-0.110439
1762522848.055140,-0.243688,-0.204531
1762522848.088474,-0.489036,-0.231609
1762522848.121807,-0.648998,-0.221114
1762522848.155141,-0.564811,-0.210124
1762522848.188475,-0.317816,-0.229558
1762522848.221808,0.026094,-0.294289
1762522848.255142,0.231733,-0.399710
1762522848.288476,0.165911,-0.524307
1762522848.321809,-0.260329,-0.635821
1762522848.355143,-0.857335,-0.698538
1762522848.388476,-1.428916,-0.680314
1762522848.421810,-1.677767,-0.559052
1762522848.455144,-1.466687,-0.328559
1762522848.488477,-0.781719,-0.002879
1762522848.521811,0.188206,0.382619
1762522848.555145,1.224152,0.775059
1762522848.588478,2.057418,1.113014
1762522848.621812,2.510891,1.338803
1762522848.655145,2.435080,1.410810
1762522848.688479,1.992028,1.312320
1762522848.721813,1.234110,1.054671
1762522848.755147,0.475561,0.674478
1762522848.788480,-0.258263,0.226308
1762522848.821814,-0.739913,-0.227064
1762522848.855147,-1.080299,-0.624798
1762522848.888481,-1.260873,-0.917057
1762522848.921814,-1.403009,-1.072056
1762522848.955148,-1.471661,-1.080431
1762522848.988482,-1.469930,-0.956286
1762522849.021816,-1.280654,-0.734397
1762522849.055149,-0.917706,-0.463505
1762522849.088483,-0.323313,-0.196613
1762522849.121816,0.302788,0.019791
1762522849.155150,0.897175,0.154992
1762522849.188484,1.121849,0.199417
1762522849.221817,0.988734,0.164758
1762522849.255151,0.468980,0.079130
1762522849.288485,-0.220317,-0.021007
1762522849.321818,-0.867367,-0.099767
1762522849.355152,-1.165197,-0.129459
1762522849.388485,-0.996780,-0.095601
1762522849.421819,-0.442498,0.001130
1762522849.455153,0.284992,0.145814
1762522849.488486,0.967824,0.312573
1762522849.521820,1.356539,0.469691
1762522849.555154,1.367559,0.585971
1762522849.588487,1.029003,0.637393
1762522849.621821,0.607191,0.612723
1762522849.655154,0.212059,0.516583
1762522849.688488,0.024121,0.368790
1762522849.721822,-0.003656,0.199642
1762522849.755155,0.082062,0.042161
1762522849.788489,0.099002,-0.076514
1762522849.821823,0.003052,-0.141965
1762522849.855156,-0.218983,-0.155520
1762522849.888490,-0.407165,-0.132650
1762522849.921824,-0.522958,-0.097324
1762522849.955157,-0.452001,-0.074035
1762522849.988491,-0.209505,-0.079932
1762522850.021824,0.081001,-0.119443
1762522850.055158,0.272769,-0.183021
1762522850.088492,0.206476,-0.250361
1762522850.121825,-0.180283,-0.297001
1762522850.155159,-0.643744,-0.302169
1762522850.188493,-1.089340,-0.255451
1762522850.221826,-1.183970,-0.160352
1762522850.255160,-0.944535,-0.033944
1762522850.288493,-0.274090,0.097071
1762522850.321827,0.454844,0.202654
1762522850.355161,1.117313,0.256454
1762522850.388494,1.295188,0.242022
1762522850.421828,1.014717,0.157072
1762522850.455162,0.285374,0.015121
1762522850.488495,-0.549163,-0.155852
1762522850.521829,-1.258230,-0.317903
1762522850.555162,-1.550323,-0.430645
1762522850.588496,-1.375220,-0.460813
1762522850.621830,-0.798615,-0.391635
1762522850.655163,-0.162936,-0.228930
1762522850.688497,0.454921,-0.001245
1762522850.721831,0.832037,0.246911
1762522850.755164,1.026141,0.467074
1762522850.788498,0.976835,0.620135
1762522850.821831,0.889657,0.686164
1762522850.855165,0.785363,0.667276
1762522850.888499,0.747771,0.582974
1762522850.921833,0.587393,0.460572
1762522850.955166,0.501682,0.325060
1762522850.988500,0.255527,0.192541
1762522851.021833,0.142838,0.069198
1762522851.055167,-0.059089,-0.045114
1762522851.088500,-0.133660,-0.151603
1762522851.121834,-0.211652,-0.248773
1762522851.155168,-0.220721,-0.331716
1762522851.188502,-0.345915,-0.393970
1762522851.221835,-0.423359,-0.430143
1762522851.255169,-0.561371,-0.437583
1762522851.288502,-0.577334,-0.416432
1762522851.321836,-0.560380,-0.368596
1762522851.355170,-0.487072,-0.296814
1762522851.388503,-0.355860,-0.204613
1762522851.421837,-0.135615,-0.097002
1762522851.455171,-0.078568,0.019025
1762522851.488504,0.054181,0.134872
1762522851.521838,0.081685,0.241574
1762522851.555171,0.201658,0.331072
1762522851.588505,0.238002,0.396800
1762522851.621839,0.275432,0.433521
1762522851.655172,0.244904,0.437195
1762522851.688506,0.226833,0.405791
1762522851.721840,0.158779,0.341188
1762522851.755173,0.103230,0.251107
1762522851.788507,-0.035645,0.149482
1762522851.821841,-0.235633,0.054206
1762522851.855174,-0.372328,-0.017414
1762522851.888508,-0.582188,-0.053873
1762522851.921841,-0.652205,-0.053274
1762522851.955175,-0.535930,-0.024200
1762522851.988509,-0.329114,0.016703
1762522852.021842,0.002268,0.049514
1762522852.055176,0.307115,0.056539
1762522852.088510,0.513752,0.026924
1762522852.121843,0.435787,-0.040657
1762522852.155177,0.243637,-0.137629
1762522852.188510,-0.120685,-0.247455
1762522852.221844,-0.420757,-0.349488
1762522852.255178,-0.565903,-0.423976
1762522852.288511,-0.576307,-0.457011
1762522852.321845,-0.235446,-0.443912
1762522852.355179,0.114427,-0.389746
1762522852.388512,0.589159,-0.306733
1762522852.421846,0.950107,-0.306733
1762522852.455179,1.259118,-0.306733
1762522852.488513,1.257229,-0.306733
1762522852.521847,1.267698,-0.306733
1762522852.555180,0.234328,-0.023573
1762522852.588514,-0.044154,-0.350553
1762522852.621848,-0.553850,-0.653509
1762522852.655181,-1.208614,-0.860571
1762522852.688515,-1.733515,-0.919464
1762522852.721848,-1.898803,-0.811782
1762522852.755182,-1.482981,-0.555491
1762522852.788516,-0.597259,-0.196480
1762522852.821849,0.606604,0.204656
1762522852.855183,1.673290,0.584098
1762522852.888517,2.383700,0.882333
1762522852.921850,2.449920,1.049929
1762522852.955184,2.037496,1.054609
1762522852.988518,1.294114,0.889832
1762522853.021851,0.583503,0.581263
1762522853.055185,-0.033098,0.185864
1762522853.088519,-0.436520,-0.219341
1762522853.121852,-0.810100,-0.556594
1762522853.155186,-1.097972,-0.767827
1762522853.188519,-1.350039,-0.827859
1762522853.221853,-1.390151,-0.745420
1762522853.255187,-1.190314,-0.553179
1762522853.288520,-0.656600,-0.293278
1762522853.321854,0.032449,-0.006191
1762522853.355188,0.743277,0.272695
1762522853.388521,1.136623,0.510216
1762522853.421855,1.242795,0.672270
1762522853.455189,1.012699,0.726393
1762522853.488522,0.731574,0.651755
1762522853.521856,0.412323,0.452094
1762522853.555189,0.203162,0.163471
1762522853.588523,-0.113217,-0.149933
1762522853.621857,-0.495398,-0.412849
1762522853.655190,-1.048445,-0.562658
1762522853.688524,-1.522069,-0.569784
1762522853.721858,-1.752774,-0.446070
1762522853.755191,-1.425147,-0.238264
1762522853.788525,-0.613210,-0.010645
1762522853.821858,0.535241,0.175073
1762522853.855192,1.482107,0.274940
1762522853.888526,1.916496,0.269550
1762522853.921859,1.516252,0.163616
1762522853.955193,0.535156,-0.018099
1762522853.988527,-0.735225,-0.235829
1762522854.021860,-1.713715,-0.440640
1762522854.055194,-2.159221,-0.582505
1762522854.088527,-1.869963,-0.621234
1762522854.121861,-1.110071,-0.538146
1762522854.155195,-0.113843,-0.343923
1762522854.188528,0.705011,-0.077996
1762522854.221862,1.195202,0.202125
1762522854.255196,1.268160,0.438479
1762522854.288529,1.098683,0.590462
1762522854.321863,0.794563,0.645688
1762522854.355196,0.507404,0.619911
1762522854.388530,0.273333,0.547021
1762522854.421864,0.219525,0.464197
1762522854.455197,0.261670,0.398602
1762522854.488531,0.402278,0.360326
1762522854.521865,0.487229,0.342865
1762522854.555198,0.563520,0.329256
1762522854.588532,0.538468,0.300405
1762522854.621866,0.451382,0.242354
1762522854.655199,0.241363,0.150452
1762522854.688533,0.037944,0.029890
1762522854.721866,-0.198928,-0.106845
1762522854.755200,-0.372553,-0.244379
1762522854.788534,-0.537668,-0.369245
1762522854.821867,-0.644647,-0.473457
1762522854.855201,-0.743407,-0.555547
1762522854.888535,-0.784800,-0.618544
1762522854.921868,-0.783058,-0.665727
1762522854.955202,-0.760864,-0.696147
1762522854.988535,-0.736615,-0.702171
1762522855.021869,-0.765721,-0.670410
1762522855.055203,-0.813595,-0.585813
1762522855.088537,-0.839253,-0.437255
1762522855.121870,-0.765120,-0.222556
1762522855.155204,-0.505114,0.048457
1762522855.188537,-0.047144,0.353165
1762522855.221871,0.592385,0.657281
1762522855.255205,1.212364,0.917760
1762522855.288538,1.728452,1.088092
1762522855.321872,1.938467,1.126717
1762522855.355206,1.841384,1.008206
1762522855.388539,1.416702,0.734559
1762522855.421873,0.778815,0.341961
1762522855.455206,-0.022150,-0.101620
1762522855.488540,-0.856462,-0.509768
1762522855.521874,-1.599183,-0.798933
1762522855.555207,-2.088887,-0.910625
1762522855.588541,-2.160497,-0.826402
1762522855.621875,-1.679848,-0.570498
1762522855.655208,-0.720466,-0.200406
1762522855.688542,0.540118,0.209507
1762522855.721875,1.659375,0.584494
1762522855.755209,2.372206,0.861237
1762522855.788543,2.422777,0.994156
1762522855.821876,1.897472,0.958652
1762522855.855210,0.977651,0.753998
1762522855.888544,0.073820,0.406206
1762522855.921877,-0.598830,-0.031803
1762522855.955211,-0.963725,-0.486334
1762522855.988544,-1.140729,-0.876786
1762522856.021878,-1.293764,-1.134393
1762522856.055212,-1.483517,-1.219322
1762522856.088545,-1.699403,-1.129112
1762522856.121879,-1.734332,-0.895009
1762522856.155213,-1.404509,-0.568400
1762522856.188546,-0.687264,-0.204144
1762522856.221880,0.298428,0.151705
1762522856.255213,1.193564,0.465760
1762522856.288547,1.739811,0.714101
1762522856.321881,1.765273,0.877401
1762522856.355214,1.423767,0.939852
1762522856.388548,0.844029,0.893791
1762522856.421882,0.367021,0.747029
1762522856.455215,0.112016,0.527164
1762522856.488549,0.055030,0.278232
1762522856.521883,0.030517,0.049343
1762522856.555216,-0.036589,-0.120434
1762522856.588550,-0.243688,-0.214235
1762522856.621883,-0.489036,-0.241241
1762522856.655217,-0.648998,-0.230794
1762522856.688551,-0.564811,-0.219853
1762522856.721884,-0.317816,-0.239238
1762522856.755218,0.026094,-0.303769
1762522856.788552,0.231733,-0.408858
1762522856.821885,0.165911,-0.533058
1762522856.855219,-0.260329,-0.644216
1762522856.888552,-0.857335,-0.706736
1762522856.921886,-1.428916,-0.688575
1762522856.955220,-1.677767,-0.567710
1762522856.988553,-1.466687,-0.337968
1762522857.021887,-0.781719,-0.013347
1762522857.055221,0.188206,0.370898
1762522857.088554,1.224152,0.762063
1762522857.121888,2.057418,1.098921
1762522857.155221,2.510891,1.323979
1762522857.188555,2.435080,1.395756
1762522857.221889,1.992028,1.297591
1762522857.255223,1.234110,1.040784
1762522857.288556,0.475561,0.661832
1762522857.321890,-0.258263,0.215123
1762522857.355223,-0.739913,-0.236770
1762522857.388557,-1.080299,-0.633206
1762522857.421890,-1.260873,-0.924510
1762522857.455224,-1.403009,-1.079002
1762522857.488558,-1.471661,-1.087346
1762522857.521892,-1.469930,-0.963602
1762522857.555225,-1.280654,-0.742432
1762522857.588559,-0.917706,-0.472419
1762522857.621892,-0.323313,-0.206393
1762522857.655226,0.302788,0.009308
1762522857.688560,0.897175,0.144070
1762522857.721893,1.121849,0.188351
1762522857.755227,0.988734,0.153804
1762522857.788561,0.468980,0.068455
1762522857.821894,-0.220317,-0.031357
1762522857.855228,-0.867367,-0.109861
1762522857.888561,-1.165197,-0.139458
1762522857.921895,-0.996780,-0.105711
1762522857.955229,-0.442498,-0.009295
1762522857.988562,0.284992,0.134917
1762522858.021896,0.967824,0.301131
1762522858.055230,1.356539,0.457737
1762522858.088563,1.367559,0.573638
1762522858.121897,1.029003,0.624892
1762522858.155231,0.607191,0.600300
1762522858.188564,0.212059,0.504472
1762522858.221898,0.024121,0.357159
1762522858.255231,-0.003656,0.188561
1762522858.288565,0.082062,0.031591
1762522858.321899,0.099002,-0.086699
1762522858.355232,0.003052,-0.151938
1762522858.388566,-0.218983,-0.165448
1762522858.421900,-0.407165,-0.142654
1762522858.455233,-0.522958,-0.107443
1762522858.488567,-0.452001,-0.084229
1762522858.521900,-0.209505,-0.090107
1762522858.555234,0.081001,-0.129489
1762522858.588568,0.272769,-0.192860
1762522858.621901,0.206476,-0.259981
1762522858.655235,-0.180283,-0.306469
1762522858.688569,-0.643744,-0.311620
1762522858.721902,-1.089340,-0.265053
1762522858.755236,-1.183970,-0.170264
1762522858.788569,-0.944535,-0.044266
1762522858.821903,-0.274090,0.086323
1762522858.855237,0.454844,0.191563
1762522858.888570,1.117313,0.245189
1762522858.921904,1.295188,0.230804
1762522858.955238,1.014717,0.146131
1762522858.988571,0.285374,0.004641
1762522859.021905,-0.549163,-0.165776
1762522859.055238,-1.258230,-0.327299
1762522859.088572,-1.550323,-0.439674
1762522859.121906,-1.375220,-0.469745
1762522859.155239,-0.798615,-0.400791
1762522859.188573,-0.162936,-0.238616
1762522859.221907,0.454921,-0.011671
1762522859.255240,0.832037,0.235678
1762522859.288574,1.026141,0.455125
1762522859.321908,0.976835,0.607688
1762522859.355241,0.889657,0.673502
1762522859.388575,0.785363,0.654676
1762522859.421909,0.747771,0.570648
1762522859.455242,0.587393,0.448644
1762522859.488576,0.501682,0.313572
1762522859.521909,0.255527,0.181484
1762522859.555243,0.142838,0.058542
1762522859.588577,-0.059089,-0.055398
1762522859.621910,-0.133660,-0.161541
1762522859.655244,-0.211652,-0.258395
1762522859.688578,-0.220721,-0.341068
1762522859.721911,-0.345915,-0.403120
1762522859.755245,-0.423359,-0.439176
1762522859.788579,-0.561371,-0.446592
1762522859.821912,-0.577334,-0.425509
1762522859.855246,-0.560380,-0.377828
1762522859.888579,-0.487072,-0.306280
1762522859.921913,-0.355860,-0.214379
1762522859.955247,-0.135615,-0.107117
1762522859.988580,-0.078568,0.008532
1762522860.021914,0.054181,0.124002
1762522860.055248,0.081685,0.230357
1762522860.088581,0.201658,0.319564
1762522860.121915,0.238002,0.385078
1762522860.155248,0.275432,0.421680
1762522860.188582,0.244904,0.425342
1762522860.221916,0.226833,0.394041
1762522860.255249,0.158779,0.329647
1762522860.288583,0.103230,0.239859
1762522860.321917,-0.035645,0.138564
1762522860.355250,-0.235633,0.043599
1762522860.388584,-0.372328,-0.027788
1762522860.421917,-0.582188,-0.064129
1762522860.455251,-0.652205,-0.063532
1762522860.488585,-0.535930,-0.034552
1762522860.521918,-0.329114,0.006218
1762522860.555252,0.002268,0.038922
1762522860.588586,0.307115,0.045924
1762522860.621919,0.513752,0.016405
1762522860.655253,0.435787,-0.050956
1762522860.688586,0.243637,-0.147612
1762522860.721920,-0.120685,-0.257081
1762522860.755254,-0.420757,-0.358783
1762522860.788587,-0.565903,-0.433028
1762522860.821921,-0.576307,-0.465956
1762522860.855255,-0.235446,-0.452899
1762522860.888588,0.114427,-0.398909
1762522860.921922,0.589159,-0.316167
1762522860.955256,0.950107,-0.316167
1762522860.988589,1.259118,-0.316167
1762522861.021923,1.257229,-0.316167
1762522861.055256,1.267698,-0.316167
1762522861.088590,0.234328,-0.029890
1762522861.121924,-0.044154,-0.373392
1762522861.155257,-0.553850,-0.691656
1762522861.188591,-1.208614,-0.909181
1762522861.221925,-1.733515,-0.971050
1762522861.255258,-1.898803,-0.857926
1762522861.288592,-1.482981,-0.588685
1762522861.321925,-0.597259,-0.211534
1762522861.355259,0.606604,0.209872
1762522861.388593,1.673290,0.608486
1762522861.421926,2.383700,0.921791
1762522861.455260,2.449920,1.097855
1762522861.488594,2.037496,1.102771
1762522861.521927,1.294114,0.929668
1762522861.555261,0.583503,0.605508
1762522861.588595,-0.033098,0.190129
1762522861.621928,-0.436520,-0.235550
1762522861.655262,-0.810100,-0.589844
1762522861.688596,-1.097972,-0.811751
1762522861.721929,-1.350039,-0.874816
1762522861.755263,-1.390151,-0.788211
1762522861.788596,-1.190314,-0.586256
1762522861.821930,-0.656600,-0.313223
1762522861.855264,0.032449,-0.011629
1762522861.888597,0.743277,0.281348
1762522861.921931,1.136623,0.530871
1762522861.955265,1.242795,0.701113
1762522861.988598,1.012699,0.757972
1762522862.021932,0.731574,0.679562
1762522862.055265,0.412323,0.469812
1762522862.088599,0.203162,0.166606
1762522862.121933,-0.113217,-0.162635
1762522862.155266,-0.495398,-0.438836
1762522862.188600,-1.048445,-0.596214
1762522862.221934,-1.522069,-0.603701
1762522862.255267,-1.752774,-0.473736
1762522862.288601,-1.425147,-0.255429
1762522862.321934,-0.613210,-0.016309
1762522862.355268,0.535241,0.178793
1762522862.388602,1.482107,0.283707
1762522862.421935,1.916496,0.278044
1762522862.455269,1.516252,0.166757
1762522862.488603,0.535156,-0.024140
1762522862.521936,-0.735225,-0.252871
1762522862.555270,-1.713715,-0.468031
1762522862.588603,-2.159221,-0.617065
1762522862.621937,-1.869963,-0.657750
1762522862.655271,-1.110071,-0.570463
1762522862.688604,-0.113843,-0.366427
1762522862.721938,0.705011,-0.087063
1762522862.755272,1.195202,0.207213
1762522862.788605,1.268160,0.455509
1762522862.821939,1.098683,0.615172
1762522862.855273,0.794563,0.673188
1762522862.888606,0.507404,0.646108
1762522862.921940,0.273333,0.569535
1762522862.955273,0.219525,0.482526
1762522862.988607,0.261670,0.413617
1762522863.021941,0.402278,0.373407
1762522863.055274,0.487229,0.355064
1762522863.088608,0.563520,0.340767
1762522863.121942,0.538468,0.310458
1762522863.155275,0.451382,0.249474
1762522863.188609,0.241363,0.152928
1762522863.221942,0.037944,0.026275
1762522863.255276,-0.198928,-0.117369
1762522863.288610,-0.372553,-0.261853
1762522863.321944,-0.537668,-0.393028
1762522863.355277,-0.644647,-0.502506
1762522863.388611,-0.743407,-0.588745
1762522863.421944,-0.784800,-0.654924
1762522863.455278,-0.783058,-0.704491
1762522863.488611,-0.760864,-0.736449
1762522863.521945,-0.736615,-0.742776
1762522863.555279,-0.765721,-0.709411
1762522863.588613,-0.813595,-0.620540
1762522863.621946,-0.839253,-0.464475
1762522863.655280,-0.765120,-0.238928
1762522863.688613,-0.505114,0.045779
1762522863.721947,-0.047144,0.365884
1762522863.755281,0.592385,0.685367
1762522863.788614,1.212364,0.959008
1762522863.821948,1.728452,1.137947
1762522863.855282,1.938467,1.178523
1762522863.888615,1.841384,1.054024
1762522863.921949,1.416702,0.766550
1762522863.955282,0.778815,0.354114
1762522863.988616,-0.022150,-0.111881
1762522864.021950,-0.856462,-0.540652
1762522864.055283,-1.599183,-0.844428
1762522864.088617,-2.088887,-0.961764
1762522864.121951,-2.160497,-0.873285
1762522864.155284,-1.679848,-0.604451
1762522864.188618,-0.720466,-0.215658
1762522864.221951,0.540118,0.214967
1762522864.255285,1.659375,0.608902
1762522864.288619,2.372206,0.899628
1762522864.321952,2.422777,1.039264
1762522864.355286,1.897472,1.001966
1762522864.388620,0.977651,0.786971
1762522864.421953,0.073820,0.421605
1762522864.455287,-0.598830,-0.038536
1762522864.488621,-0.963725,-0.516034
1762522864.521954,-1.140729,-0.926215
1762522864.555288,-1.293764,-1.196839
1762522864.588621,-1.483517,-1.286059
1762522864.621955,-1.699403,-1.191291
1762522864.655289,-1.734332,-0.945359
1762522864.688622,-1.404509,-0.602246
1762522864.721956,-0.687264,-0.219585
1762522864.755290,0.298428,0.154245
1762522864.788623,1.193564,0.484169
1762522864.821957,1.739811,0.745058
1762522864.855290,1.765273,0.916609
1762522864.888624,1.423767,0.982216
1762522864.921958,0.844029,0.933827
1762522864.955291,0.367021,0.779650
1762522864.988625,0.112016,0.548675
1762522865.021959,0.055030,0.287165
1762522865.055292,0.030517,0.046710
1762522865.088626,-0.036589,-0.131645
1762522865.121959,-0.243688,-0.230186
1762522865.155293,-0.489036,-0.258556
1762522865.188627,-0.648998,-0.247582
1762522865.221960,-0.564811,-0.236088
1762522865.255294,-0.317816,-0.256452
1762522865.288628,0.026094,-0.324244
1762522865.321961,0.231733,-0.434643
1762522865.355295,0.165911,-0.565119
1762522865.388628,-0.260329,-0.681894
1762522865.421962,-0.857335,-0.747572
1762522865.455296,-1.428916,-0.728494
1762522865.488629,-1.677767,-0.601522
1762522865.521963,-1.466687,-0.360171
1762522865.555297,-0.781719,-0.019148
1762522865.588630,0.188206,0.384513
1762522865.621964,1.224152,0.795443
1762522865.655298,2.057418,1.149323
1762522865.688631,2.510891,1.385753
1762522865.721965,2.435080,1.461157
1762522865.755299,1.992028,1.358031
1762522865.788632,1.234110,1.088248
1762522865.821966,0.475561,0.690147
1762522865.855299,-0.258263,0.220867
1762522865.888633,-0.739913,-0.253859
1762522865.921967,-1.080299,-0.670327
1762522865.955300,-1.260873,-0.976351
1762522865.988634,-1.403009,-1.138649
1762522866.021968,-1.471661,-1.147415
1762522866.055301,-1.469930,-1.017418
1762522866.088635,-1.280654,-0.785072
1762522866.121969,-0.917706,-0.501416
1762522866.155302,-0.323313,-0.221948
1762522866.188636,0.302788,0.004652
1762522866.221969,0.897175,0.146224
1762522866.255303,1.121849,0.192742
1762522866.288637,0.988734,0.156450
1762522866.321970,0.468980,0.066788
1762522866.355304,-0.220317,-0.038067
1762522866.388638,-0.867367,-0.120538
1762522866.421971,-1.165197,-0.151630
1762522866.455305,-0.996780,-0.116178
1762522866.488638,-0.442498,-0.014891
1762522866.521972,0.284992,0.136608
1762522866.555306,0.967824,0.311221
1762522866.588639,1.356539,0.475740
1762522866.621973,1.367559,0.597498
1762522866.655307,1.029003,0.651341
1762522866.688640,0.607191,0.625507
1762522866.721974,0.212059,0.524837
1762522866.755307,0.024121,0.370080
1762522866.788641,-0.003656,0.192963
1762522866.821975,0.082062,0.028061
1762522866.855308,0.099002,-0.096206
1762522866.888642,0.003052,-0.164741
1762522866.921976,-0.218983,-0.178934
1762522866.955309,-0.407165,-0.154988
1762522866.988643,-0.522958,-0.117997
1762522867.021976,-0.452001,-0.093611
1762522867.055310,-0.209505,-0.099786
1762522867.088644,0.081001,-0.141158
1762522867.121977,0.272769,-0.207731
1762522867.155311,0.206476,-0.278244
1762522867.188645,-0.180283,-0.327080
1762522867.221978,-0.643744,-0.332492
1762522867.255312,-1.089340,-0.283572
1762522867.288646,-1.183970,-0.183993
1762522867.321979,-0.944535,-0.051629
1762522867.355313,-0.274090,0.085559
1762522867.388646,0.454844,0.196117
1762522867.421980,1.117313,0.252452
1762522867.455314,1.295188,0.237340
1762522867.488647,1.014717,0.148389
1762522867.521981,0.285374,-0.000250
1762522867.555315,-0.549163,-0.179278
1762522867.588648,-1.258230,-0.348963
1762522867.621982,-1.550323,-0.467017
1762522867.655315,-1.375220,-0.498606
1762522867.688649,-0.798615,-0.426169
1762522867.721983,-0.162936,-0.255799
1762522867.755316,0.454921,-0.017387
1762522867.788650,0.832037,0.242461
1762522867.821984,1.026141,0.472996
1762522867.855317,0.976835,0.633268
1762522867.888651,0.889657,0.702408
1762522867.921985,0.785363,0.682630
1762522867.955318,0.747771,0.594357
1762522867.988652,0.587393,0.466187
1762522868.021986,0.501682,0.324291
1762522868.055319,0.255527,0.185529
1762522868.088653,0.142838,0.056374
1762522868.121986,-0.059089,-0.063324
1762522868.155320,-0.133660,-0.174830
1762522868.188654,-0.211652,-0.276577
1762522868.221987,-0.220721,-0.363428
1762522868.255321,-0.345915,-0.428615
1762522868.288655,-0.423359,-0.466493
1762522868.321988,-0.561371,-0.474283
1762522868.355322,-0.577334,-0.452135
1762522868.388655,-0.560380,-0.402046
1762522868.421989,-0.487072,-0.326882
1762522868.455323,-0.355860,-0.230338
1762522868.488656,-0.135615,-0.117656
1762522868.521990,-0.078568,0.003837
1762522868.555324,0.054181,0.125142
1762522868.588657,0.081685,0.236871
1762522868.621991,0.201658,0.330585
1762522868.655324,0.238002,0.399410
1762522868.688658,0.275432,0.437861
1762522868.721992,0.244904,0.441708
1762522868.755325,0.226833,0.408825
1762522868.788659,0.158779,0.341178
1762522868.821993,0.103230,0.246853
1762522868.855326,-0.035645,0.140440
1762522868.888660,-0.235633,0.040676
1762522868.921993,-0.372328,-0.034318
1762522868.955327,-0.582188,-0.072495
1762522868.988661,-0.652205,-0.071868
1762522869.021994,-0.535930,-0.041424
1762522869.055328,-0.329114,0.001406
1762522869.088662,0.002268,0.035762
1762522869.121995,0.307115,0.043119
1762522869.155329,0.513752,0.012108
1762522869.188663,0.435787,-0.058656
1762522869.221996,0.243637,-0.160197
1762522869.255330,-0.120685,-0.275197
1762522869.288663,-0.420757,-0.382037
1762522869.321997,-0.565903,-0.460035
1762522869.355331,-0.576307,-0.494626
1762522869.388664,-0.235446,-0.480910
1762522869.421998,0.114427,-0.424192
1762522869.455332,0.589159,-0.337268
1762522869.488665,0.950107,-0.337268
1762522869.521999,1.259118,-0.337268
1762522869.555332,1.257229,-0.337268
1762522869.588666,1.267698,-0.337268
1762522869.622000,0.234328,-0.029890
1762522869.655334,-0.044154,-0.373392
1762522869.688667,-0.553850,-0.691656
1762522869.722001,-1.208614,-0.909181
1762522869.755334,-1.733515,-0.971050
1762522869.788668,-1.898803,-0.857926
1762522869.822001,-1.482981,-0.588685
1762522869.855335,-0.597259,-0.211534
1762522869.888669,0.606604,0.209872
1762522869.922003,1.673290,0.608486
1762522869.955336,2.383700,0.921791
1762522869.988670,2.449920,1.097855
1762522870.022003,2.037496,1.102771
1762522870.055337,1.294114,0.929668
1762522870.088671,0.583503,0.605508
1762522870.122004,-0.033098,0.190129
1762522870.155338,-0.436520,-0.235550
1762522870.188672,-0.810100,-0.589844
1762522870.222005,-1.097972,-0.811751
1762522870.255339,-1.350039,-0.874816
1762522870.288672,-1.390151,-0.788211
1762522870.322006,-1.190314,-0.586256
1762522870.355340,-0.656600,-0.313223
1762522870.388673,0.032449,-0.011629
1762522870.422007,0.743277,0.281348
1762522870.455341,1.136623,0.530871
1762522870.488674,1.242795,0.701113
1762522870.522008,1.012699,0.757972
1762522870.555341,0.731574,0.679562
1762522870.588675,0.412323,0.469812
1762522870.622009,0.203162,0.166606
1762522870.655342,-0.113217,-0.162635
1762522870.688676,-0.495398,-0.438836
1762522870.722010,-1.048445,-0.596214
1762522870.755343,-1.522069,-0.603701
1762522870.788677,-1.752774,-0.473736
1762522870.822011,-1.425147,-0.255429
1762522870.855344,-0.613210,-0.016309
1762522870.888678,0.535241,0.178793
1762522870.922011,1.482107,0.283707
1762522870.955345,1.916496,0.278044
1762522870.988679,1.516252,0.166757
1762522871.022012,0.535156,-0.024140
1762522871.055346,-0.735225,-0.252871
1762522871.088680,-1.713715,-0.468031
1762522871.122013,-2.159221,-0.617065
1762522871.155347,-1.869963,-0.657750
1762522871.188680,-1.110071,-0.570463
1762522871.222014,-0.113843,-0.366427
1762522871.255348,0.705011,-0.087063
1762522871.288681,1.195202,0.207213
1762522871.322015,1.268160,0.455509
1762522871.355349,1.098683,0.615172
1762522871.388682,0.794563,0.673188
1762522871.422016,0.507404,0.646108
1762522871.455349,0.273333,0.569535
1762522871.488683,0.219525,0.482526
1762522871.522017,0.261670,0.413617
1762522871.555350,0.402278,0.373407
1762522871.588684,0.487229,0.355064
1762522871.622018,0.563520,0.340767
1762522871.655351,0.538468,0.310458
1762522871.688685,0.451382,0.249474
1762522871.722018,0.241363,0.152928
1762522871.755352,0.037944,0.026275
1762522871.788686,-0.198928,-0.117369
1762522871.822020,-0.372553,-0.261853
1762522871.855353,-0.537668,-0.393028
1762522871.888687,-0.644647,-0.502506
1762522871.922020,-0.743407,-0.588745
1762522871.955354,-0.784800,-0.654924
1762522871.988688,-0.783058,-0.704491
1762522872.022021,-0.760864,-0.736449
1762522872.055355,-0.736615,-0.742776
1762522872.088689,-0.765721,-0.709411
1762522872.122022,-0.813595,-0.620540
1762522872.155356,-0.839253,-0.464475
1762522872.188689,-0.765120,-0.238928
1762522872.222023,-0.505114,0.045779
1762522872.255357,-0.047144,0.365884
1762522872.288690,0.592385,0.685367
1762522872.322024,1.212364,0.959008
1762522872.355358,1.728452,1.137947
1762522872.388691,1.938467,1.178523
1762522872.422025,1.841384,1.054024
1762522872.455359,1.416702,0.766550
1762522872.488692,0.778815,0.354114
1762522872.522026,-0.022150,-0.111881
1762522872.555359,-0.856462,-0.540652
1762522872.588693,-1.599183,-0.844428
1762522872.622027,-2.088887,-0.961764
1762522872.655360,-2.160497,-0.873285
1762522872.688694,-1.679848,-0.604451
1762522872.722028,-0.720466,-0.215658
1762522872.755361,0.540118,0.214967
1762522872.788695,1.659375,0.608902
1762522872.822028,2.372206,0.899628
1762522872.855362,2.422777,1.039264
1762522872.888696,1.897472,1.001966
1762522872.922029,0.977651,0.786971
1762522872.955363,0.073820,0.421605
1762522872.988697,-0.598830,-0.038536
1762522873.022030,-0.963725,-0.516034
1762522873.055364,-1.140729,-0.926215
1762522873.088697,-1.293764,-1.196839
1762522873.122031,-1.483517,-1.286059
1762522873.155365,-1.699403,-1.191291
1762522873.188698,-1.734332,-0.945359
1762522873.222032,-1.404509,-0.602246
1762522873.255366,-0.687264,-0.219585
1762522873.288699,0.298428,0.154245
1762522873.322033,1.193564,0.484169
1762522873.355366,1.739811,0.745058
1762522873.388700,1.765273,0.916609
1762522873.422034,1.423767,0.982216
1762522873.455367,0.844029,0.933827
1762522873.488701,0.367021,0.779650
1762522873.522035,0.112016,0.548675
1762522873.555368,0.055030,0.287165
1762522873.588702,0.030517,0.046710
1762522873.622036,-0.036589,-0.131645
1762522873.655369,-0.243688,-0.230186
1762522873.688703,-0.489036,-0.258556
1762522873.722036,-0.648998,-0.247582
1762522873.755370,-0.564811,-0.236088
1762522873.788704,-0.317816,-0.256452
1762522873.822037,0.026094,-0.324244
1762522873.855371,0.231733,-0.434643
1762522873.888705,0.165911,-0.565119
1762522873.922038,-0.260329,-0.681894
1762522873.955372,-0.857335,-0.747572
1762522873.988705,-1.428916,-0.728494
1762522874.022039,-1.677767,-0.601522
1762522874.055373,-1.466687,-0.360171
1762522874.088706,-0.781719,-0.019148
1762522874.122040,0.188206,0.384513
1762522874.155374,1.224152,0.795443
1762522874.188707,2.057418,1.149323
1762522874.222041,2.510891,1.385753
1762522874.255375,2.435080,1.461157
1762522874.288708,1.992028,1.358031
1762522874.322042,1.234110,1.088248
1762522874.355376,0.475561,0.690147
1762522874.388709,-0.258263,0.220867
1762522874.422043,-0.739913,-0.253859
1762522874.455376,-1.080299,-0.670327
1762522874.488710,-1.260873,-0.976351
1762522874.522044,-1.403009,-1.138649
1762522874.555377,-1.471661,-1.147415
1762522874.588711,-1.469930,-1.017418
1762522874.622045,-1.280654,-0.785072
1762522874.655378,-0.917706,-0.501416
1762522874.688712,-0.323313,-0.221948
1762522874.722045,0.302788,0.004652
1762522874.755379,0.897175,0.146224
1762522874.788713,1.121849,0.192742
1762522874.822046,0.988734,0.156450
1762522874.855380,0.468980,0.066788
1762522874.888714,-0.220317,-0.038067
1762522874.922047,-0.867367,-0.120538
1762522874.955381,-1.165197,-0.151630
1762522874.988714,-0.996780,-0.116178
1762522875.022048,-0.442498,-0.014891
1762522875.055382,0.284992,0.136608
1762522875.088715,0.967824,0.311221
1762522875.122049,1.356539,0.475740
1762522875.155383,1.367559,0.597498
1762522875.188716,1.029003,0.651341
1762522875.222050,0.607191,0.625507
1762522875.255383,0.212059,0.524837
1762522875.288717,0.024121,0.370080
1762522875.322051,-0.003656,0.192963
1762522875.355384,0.082062,0.028061
1762522875.388718,0.099002,-0.096206
1762522875.422052,0.003052,-0.164741
1762522875.455385,-0.218983,-0.178934
1762522875.488719,-0.407165,-0.154988
1762522875.522053,-0.522958,-0.117997
1762522875.555386,-0.452001,-0.093611
1762522875.588720,-0.209505,-0.099786
1762522875.622053,0.081001,-0.141158
1762522875.655387,0.272769,-0.207731
1762522875.688721,0.206476,-0.278244
1762522875.722054,-0.180283,-0.327080
1762522875.755388,-0.643744,-0.332492
1762522875.788722,-1.089340,-0.283572
1762522875.822055,-1.183970,-0.183993
1762522875.855389,-0.944535,-0.051629
1762522875.888722,-0.274090,0.085559
1762522875.922056,0.454844,0.196117
1762522875.955390,1.117313,0.252452
1762522875.988724,1.295188,0.237340
1762522876.022057,1.014717,0.148389
1762522876.055391,0.285374,-0.000250
1762522876.088724,-0.549163,-0.179278
1762522876.122058,-1.258230,-0.348963
1762522876.155391,-1.550323,-0.467017
1762522876.188725,-1.375220,-0.498606
1762522876.222059,-0.798615,-0.426169
1762522876.255393,-0.162936,-0.255799
1762522876.288726,0.454921,-0.017387
1762522876.322060,0.832037,0.242461
1762522876.355393,1.026141,0.472996
1762522876.388727,0.976835,0.633268
1762522876.422061,0.889657,0.702408
1762522876.455394,0.785363,0.682630
1762522876.488728,0.747771,0.594357
1762522876.522062,0.587393,0.466187
1762522876.555395,0.501682,0.324291
1762522876.588729,0.255527,0.185529
1762522876.622062,0.142838,0.056374
1762522876.655396,-0.059089,-0.063324
1762522876.688730,-0.133660,-0.174830
1762522876.722063,-0.211652,-0.276577
1762522876.755397,-0.220721,-0.363428
1762522876.788731,-0.345915,-0.428615
1762522876.822064,-0.423359,-0.466493
1762522876.855398,-0.561371,-0.474283
1762522876.888731,-0.577334,-0.452135
1762522876.922065,-0.560380,-0.402046
1762522876.955399,-0.487072,-0.326882
1762522876.988732,-0.355860,-0.230338
1762522877.022066,-0.135615,-0.117656
1762522877.055400,-0.078568,0.003837
1762522877.088733,0.054181,0.125142
1762522877.122067,0.081685,0.236871
1762522877.155401,0.201658,0.330585
1762522877.188734,0.238002,0.399410
1762522877.222068,0.275432,0.437861
1762522877.255401,0.244904,0.441708
1762522877.288735,0.226833,0.408825
1762522877.322069,0.158779,0.341178
1762522877.355402,0.103230,0.246853
1762522877.388736,-0.035645,0.140440
1762522877.422070,-0.235633,0.040676
1762522877.455403,-0.372328,-0.034318
1762522877.488737,-0.582188,-0.072495
1762522877.522070,-0.652205,-0.071868
1762522877.555404,-0.535930,-0.041424
1762522877.588738,-0.329114,0.001406
1762522877.622071,0.002268,0.035762
1762522877.655405,0.307115,0.043119
1762522877.688739,0.513752,0.012108
1762522877.722072,0.435787,-0.058656
1762522877.755406,0.243637,-0.160197
1762522877.788739,-0.120685,-0.275197
1762522877.822073,-0.420757,-0.382037
1762522877.855407,-0.565903,-0.460035
1762522877.888740,-0.576307,-0.494626
1762522877.922074,-0.235446,-0.480910
1762522877.955408,0.114427,-0.424192
1762522877.988741,0.589159,-0.337268
1762522878.022075,0.950107,-0.337268
1762522878.055408,1.259118,-0.337268
1762522878.088742,1.257229,-0.337268
1762522878.122076,1.267698,-0.337268
1762522878.155410,0.234328,-0.029890
1762522878.188743,-0.044154,-0.373392
1762522878.222077,-0.553850,-0.691656
1762522878.255410,-1.208614,-0.909181
1762522878.288744,-1.733515,-0.971050
1762522878.322078,-1.898803,-0.857926
1762522878.355411,-1.482981,-0.588685
1762522878.388745,-0.597259,-0.211534
1762522878.422079,0.606604,0.209872
1762522878.455412,1.673290,0.608486
1762522878.488746,2.383700,0.921791
1762522878.522079,2.449920,1.097855
1762522878.555413,2.037496,1.102771
1762522878.588747,1.294114,0.929668
1762522878.622080,0.583503,0.605508
1762522878.655414,-0.033098,0.190129
1762522878.688748,-0.436520,-0.235550
1762522878.722081,-0.810100,-0.589844
1762522878.755415,-1.097972,-0.811751
1762522878.788749,-1.350039,-0.874816
1762522878.822082,-1.390151,-0.788211
1762522878.855416,-1.190314,-0.586256
1762522878.888749,-0.656600,-0.313223
1762522878.922083,0.032449,-0.011629
1762522878.955417,0.743277,0.281348
1762522878.988750,1.136623,0.530871
1762522879.022084,1.242795,0.701113
1762522879.055418,1.012699,0.757972
1762522879.088751,0.731574,0.679562
1762522879.122085,0.412323,0.469812
1762522879.155418,0.203162,0.166606
1762522879.188752,-0.113217,-0.162635
1762522879.222086,-0.495398,-0.438836
1762522879.255419,-1.048445,-0.596214
1762522879.288753,-1.522069,-0.603701
1762522879.322087,-1.752774,-0.473736
1762522879.355420,-1.425147,-0.255429
1762522879.388754,-0.613210,-0.016309
1762522879.422087,0.535241,0.178793
1762522879.455421,1.482107,0.283707
1762522879.488755,1.916496,0.278044
1762522879.522088,1.516252,0.166757
1762522879.555422,0.535156,-0.024140
1762522879.588756,-0.735225,-0.252871
1762522879.622089,-1.713715,-0.468031
1762522879.655423,-2.159221,-0.617065
1762522879.688756,-1.869963,-0.657750
1762522879.722090,-1.110071,-0.570463
1762522879.755424,-0.113843,-0.366427
1762522879.788757,0.705011,-0.087063
1762522879.822091,1.195202,0.207213
1762522879.855425,1.268160,0.455509
1762522879.888758,1.098683,0.615172
1762522879.922092,0.794563,0.673188
1762522879.955426,0.507404,0.646108
1762522879.988759,0.273333,0.569535
1762522880.022093,0.219525,0.482526
1762522880.055426,0.261670,0.413617
1762522880.088760,0.402278,0.373407
1762522880.122094,0.487229,0.355064
1762522880.155427,0.563520,0.340767
1762522880.188761,0.538468,0.310458
1762522880.222095,0.451382,0.249474
1762522880.255428,0.241363,0.152928
1762522880.288762,0.037944,0.026275
1762522880.322096,-0.198928,-0.117369
1762522880.355429,-0.372553,-0.261853
1762522880.388763,-0.537668,-0.393028
1762522880.422096,-0.644647,-0.502506
1762522880.455430,-0.743407,-0.588745
1762522880.488764,-0.784800,-0.654924
1762522880.522097,-0.783058,-0.704491
1762522880.555431,-0.760864,-0.736449
1762522880.588765,-0.736615,-0.742776
1762522880.622098,-0.765721,-0.709411
1762522880.655432,-0.813595,-0.620540
1762522880.688766,-0.839253,-0.464475
1762522880.722099,-0.765120,-0.238928
1762522880.755433,-0.505114,0.045779
1762522880.788766,-0.047144,0.365884
1762522880.822100,0.592385,0.685367
1762522880.855434,1.212364,0.959008
1762522880.888767,1.728452,1.137947
1762522880.922101,1.938467,1.178523
1762522880.955435,1.841384,1.054024
1762522880.988768,1.416702,0.766550
1762522881.022102,0.778815,0.354114
1762522881.055435,-0.022150,-0.111881
1762522881.088769,-0.856462,-0.540652
1762522881.122103,-1.599183,-0.844428
1762522881.155436,-2.088887,-0.961764
1762522881.188770,-2.160497,-0.873285
1762522881.222104,-1.679848,-0.604451
1762522881.255437,-0.720466,-0.215658
1762522881.288771,0.540118,0.214967
1762522881.322104,1.659375,0.608902
1762522881.355438,2.372206,0.899628
1762522881.388772,2.422777,1.039264
1762522881.422105,1.897472,1.001966
1762522881.455439,0.977651,0.786971
1762522881.488773,0.073820,0.421605
1762522881.522106,-0.598830,-0.038536
1762522881.555440,-0.963725,-0.516034
1762522881.588773,-1.140729,-0.926215
1762522881.622107,-1.293764,-1.196839
1762522881.655441,-1.483517,-1.286059
1762522881.688774,-1.699403,-1.191291
1762522881.722108,-1.734332,-0.945359
1762522881.755442,-1.404509,-0.602246
1762522881.788775,-0.687264,-0.219585
1762522881.822109,0.298428,0.154245
1762522881.855443,1.193564,0.484169
1762522881.888776,1.739811,0.745058
1762522881.922110,1.765273,0.916609
1762522881.955443,1.423767,0.982216
1762522881.988777,0.844029,0.933827
1762522882.022111,0.367021,0.779650
1762522882.055444,0.112016,0.548675
1762522882.088778,0.055030,0.287165
1762522882.122112,0.030517,0.046710
1762522882.155445,-0.036589,-0.131645
1762522882.188779,-0.243688,-0.230186
1762522882.222112,-0.489036,-0.258556
1762522882.255446,-0.648998,-0.247582
1762522882.288780,-0.564811,-0.236088
1762522882.322114,-0.317816,-0.256452
1762522882.355447,0.026094,-0.324244
1762522882.388781,0.231733,-0.434643
1762522882.422114,0.165911,-0.565119
1762522882.455448,-0.260329,-0.681894
1762522882.488781,-0.857335,-0.747572
1762522882.522115,-1.428916,-0.728494
1762522882.555449,-1.677767,-0.601522
1762522882.588783,-1.466687,-0.360171
1762522882.622116,-0.781719,-0.019148
1762522882.655450,0.188206,0.384513
1762522882.688783,1.224152,0.795443
1762522882.722117,2.057418,1.149323
1762522882.755451,2.510891,1.385753
1762522882.788784,2.435080,1.461157
1762522882.822118,1.992028,1.358031
1762522882.855452,1.234110,1.088248
1762522882.888785,0.475561,0.690147
1762522882.922119,-0.258263,0.220867
1762522882.955452,-0.739913,-0.253859
1762522882.988786,-1.080299,-0.670327
1762522883.022120,-1.260873,-0.976351
1762522883.055453,-1.403009,-1.138649
1762522883.088787,-1.471661,-1.147415
1762522883.122121,-1.469930,-1.017418
1762522883.155454,-1.280654,-0.785072
1762522883.188788,-0.917706,-0.501416
1762522883.222121,-0.323313,-0.221948
1762522883.255455,0.302788,0.004652
1762522883.288789,0.897175,0.146224
1762522883.322122,1.121849,0.192742
1762522883.355456,0.988734,0.156450
1762522883.388790,0.468980,0.066788
1762522883.422123,-0.220317,-0.038067
1762522883.455457,-0.867367,-0.120538
1762522883.488791,-1.165197,-0.151630
1762522883.522124,-0.996780,-0.116178
1762522883.555458,-0.442498,-0.014891
1762522883.588791,0.284992,0.136608
1762522883.622125,0.967824,0.311221
1762522883.655459,1.356539,0.475740
1762522883.688792,1.367559,0.597498
1762522883.722126,1.029003,0.651341
1762522883.755460,0.607191,0.625507
1762522883.788793,0.212059,0.524837
1762522883.822127,0.024121,0.370080
1762522883.855460,-0.003656,0.192963
1762522883.888794,0.082062,0.028061
1762522883.922128,0.099002,-0.096206
1762522883.955461,0.003052,-0.164741
1762522883.988795,-0.218983,-0.178934
1762522884.022129,-0.407165,-0.154988
1762522884.055462,-0.522958,-0.117997
1762522884.088796,-0.452001,-0.093611
1762522884.122129,-0.209505,-0.099786
1762522884.155463,0.081001,-0.141158
1762522884.188797,0.272769,-0.207731
1762522884.222130,0.206476,-0.278244
1762522884.255464,-0.180283,-0.327080
1762522884.288798,-0.643744,-0.332492
1762522884.322131,-1.089340,-0.283572
1762522884.355465,-1.183970,-0.183993
1762522884.388798,-0.944535,-0.051629
1762522884.422132,-0.274090,0.085559
1762522884.455466,0.454844,0.196117
1762522884.488800,1.117313,0.252452
1762522884.522133,1.295188,0.237340
1762522884.555467,1.014717,0.148389
1762522884.588800,0.285374,-0.000250
1762522884.622134,-0.549163,-0.179278
1762522884.655468,-1.258230,-0.348963
1762522884.688801,-1.550323,-0.467017
1762522884.722135,-1.375220,-0.498606
1762522884.755469,-0.798615,-0.426169
1762522884.788802,-0.162936,-0.255799
1762522884.822136,0.454921,-0.017387
1762522884.855469,0.832037,0.242461
1762522884.888803,1.026141,0.472996
1762522884.922137,0.976835,0.633268
1762522884.955470,0.889657,0.702408
1762522884.988804,0.785363,0.682630
1762522885.022138,0.747771,0.594357
1762522885.055471,0.587393,0.466187
1762522885.088805,0.501682,0.324291
1762522885.122139,0.255527,0.185529
1762522885.155472,0.142838,0.056374
1762522885.188806,-0.059089,-0.063324
1762522885.222139,-0.133660,-0.174830
1762522885.255473,-0.211652,-0.276577
1762522885.288807,-0.220721,-0.363428
1762522885.322140,-0.345915,-0.428615
1762522885.355474,-0.423359,-0.466493
1762522885.388808,-0.561371,-0.474283
1762522885.422141,-0.577334,-0.452135
1762522885.455475,-0.560380,-0.402046
1762522885.488808,-0.487072,-0.326882
1762522885.522142,-0.355860,-0.230338
1762522885.555476,-0.135615,-0.117656
1762522885.588809,-0.078568,0.003837
1762522885.622143,0.054181,0.125142
1762522885.655477,0.081685,0.236871
1762522885.688810,0.201658,0.330585
1762522885.722144,0.238002,0.399410
1762522885.755477,0.275432,0.437861
1762522885.788811,0.244904,0.441708
1762522885.822145,0.226833,0.408825
1762522885.855478,0.158779,0.341178
1762522885.888812,0.103230,0.246853
1762522885.922146,-0.035645,0.140440
1762522885.955479,-0.235633,0.040676
1762522885.988813,-0.372328,-0.034318
1762522886.022146,-0.582188,-0.072495
1762522886.055480,-0.652205,-0.071868
1762522886.088814,-0.535930,-0.041424
1762522886.122147,-0.329114,0.001406
1762522886.155481,0.002268,0.035762
1762522886.188815,0.307115,0.043119
1762522886.222148,0.513752,0.012108
1762522886.255482,0.435787,-0.058656
1762522886.288815,0.243637,-0.160197
1762522886.322149,-0.120685,-0.275197
1762522886.355483,-0.420757,-0.382037
1762522886.388816,-0.565903,-0.460035
1762522886.422150,-0.576307,-0.494626
1762522886.455484,-0.235446,-0.480910
1762522886.488817,0.114427,-0.424192
1762522886.522151,0.589159,-0.337268
1762522886.555485,0.950107,-0.337268
1762522886.588818,1.259118,-0.337268
1762522886.622152,1.257229,-0.337268
1762522886.655486,1.267698,-0.337268
1762522886.688819,0.234328,-0.029890
1762522886.722153,-0.044154,-0.373392
1762522886.755486,-0.553850,-0.691656
1762522886.788820,-1.208614,-0.909181
1762522886.822154,-1.733515,-0.971050
1762522886.855487,-1.898803,-0.857926
1762522886.888821,-1.482981,-0.588685
1762522886.922155,-0.597259,-0.211534
1762522886.955488,0.606604,0.209872
1762522886.988822,1.673290,0.608486
1762522887.022156,2.383700,0.921791
1762522887.055489,2.449920,1.097855
1762522887.088823,2.037496,1.102771
1762522887.122156,1.294114,0.929668
1762522887.155490,0.583503,0.605508
1762522887.188824,-0.033098,0.190129
1762522887.222157,-0.436520,-0.235550
1762522887.255491,-0.810100,-0.589844
1762522887.288825,-1.097972,-0.811751
1762522887.322158,-1.350039,-0.874816
1762522887.355492,-1.390151,-0.788211
1762522887.388825,-1.190314,-0.586256
1762522887.422159,-0.656600,-0.313223
1762522887.455493,0.032449,-0.011629
1762522887.488826,0.743277,0.281348
1762522887.522160,1.136623,0.530871
1762522887.555494,1.242795,0.701113
1762522887.588827,1.012699,0.757972
1762522887.622161,0.731574,0.679562
1762522887.655494,0.412323,0.469812
1762522887.688828,0.203162,0.166606
1762522887.722162,-0.113217,-0.162635
1762522887.755495,-0.495398,-0.438836
1762522887.788829,-1.048445,-0.596214
1762522887.822163,-1.522069,-0.603701
1762522887.855496,-1.752774,-0.473736
1762522887.888830,-1.425147,-0.255429
1762522887.922163,-0.613210,-0.016309
1762522887.955497,0.535241,0.178793
1762522887.988831,1.482107,0.283707
1762522888.022164,1.916496,0.278044
1762522888.055498,1.516252,0.166757
1762522888.088832,0.535156,-0.024140
1762522888.122165,-0.735225,-0.252871
1762522888.155499,-1.713715,-0.468031
1762522888.188833,-2.159221,-0.617065
1762522888.222166,-1.869963,-0.657750
1762522888.255500,-1.110071,-0.570463
1762522888.288833,-0.113843,-0.366427
1762522888.322167,0.705011,-0.087063
1762522888.355501,1.195202,0.207213
1762522888.388834,1.268160,0.455509
1762522888.422168,1.098683,0.615172
1762522888.455502,0.794563,0.673188
1762522888.488835,0.507404,0.646108
1762522888.522169,0.273333,0.569535
1762522888.555502,0.219525,0.482526
1762522888.588836,0.261670,0.413617
1762522888.622170,0.402278,0.373407
1762522888.655504,0.487229,0.355064
1762522888.688837,0.563520,0.340767
1762522888.722171,0.538468,0.310458
1762522888.755504,0.451382,0.249474
1762522888.788838,0.241363,0.152928
1762522888.822172,0.037944,0.026275
1762522888.855505,-0.198928,-0.117369
1762522888.888839,-0.372553,-0.261853
1762522888.922173,-0.537668,-0.393028
1762522888.955506,-0.644647,-0.502506
1762522888.988840,-0.743407,-0.588745
1762522889.022173,-0.784800,-0.654924
1762522889.055507,-0.783058,-0.704491
1762522889.088841,-0.760864,-0.736449
1762522889.122174,-0.736615,-0.742776
1762522889.155508,-0.765721,-0.709411
1762522889.188842,-0.813595,-0.620540
1762522889.222175,-0.839253,-0.464475
1762522889.255509,-0.765120,-0.238928
1762522889.288842,-0.505114,0.045779
1762522889.322176,-0.047144,0.365884
1762522889.355510,0.592385,0.685367
1762522889.388843,1.212364,0.959008
1762522889.422177,1.728452,1.137947
1762522889.455511,1.938467,1.178523
1762522889.488844,1.841384,1.054024
1762522889.522178,1.416702,0.766550
1762522889.555511,0.778815,0.354114
1762522889.588845,-0.022150,-0.111881
1762522889.622179,-0.856462,-0.540652
1762522889.655512,-1.599183,-0.844428
1762522889.688846,-2.088887,-0.961764
1762522889.722180,-2.160497,-0.873285
1762522889.755513,-1.679848,-0.604451
1762522889.788847,-0.720466,-0.215658
1762522889.822181,0.540118,0.214967
1762522889.855514,1.659375,0.608902
1762522889.888848,2.372206,0.899628
1762522889.922181,2.422777,1.039264
1762522889.955515,1.897472,1.001966
1762522889.988849,0.977651,0.786971
1762522890.022182,0.073820,0.421605
1762522890.055516,-0.598830,-0.038536
1762522890.088850,-0.963725,-0.516034
1762522890.122183,-1.140729,-0.926215
1762522890.155517,-1.293764,-1.196839
1762522890.188850,-1.483517,-1.286059
1762522890.222184,-1.699403,-1.191291
1762522890.255518,-1.734332,-0.945359
1762522890.288851,-1.404509,-0.602246
1762522890.322185,-0.687264,-0.219585
1762522890.355519,0.298428,0.154245
1762522890.388852,1.193564,0.484169
1762522890.422186,1.739811,0.745058
1762522890.455519,1.765273,0.916609
1762522890.488853,1.423767,0.982216
1762522890.522187,0.844029,0.933827
1762522890.555521,0.367021,0.779650
1762522890.588854,0.112016,0.548675
1762522890.622188,0.055030,0.287165
1762522890.655521,0.030517,0.046710
1762522890.688855,-0.036589,-0.131645
1762522890.722188,-0.243688,-0.230186
1762522890.755522,-0.489036,-0.258556
1762522890.788856,-0.648998,-0.247582
1762522890.822190,-0.564811,-0.236088
1762522890.855523,-0.317816,-0.256452
1762522890.888857,0.026094,-0.324244
1762522890.922190,0.231733,-0.434643
1762522890.955524,0.165911,-0.565119
1762522890.988858,-0.260329,-0.681894
1762522891.022191,-0.857335,-0.747572
1762522891.055525,-1.428916,-0.728494
1762522891.088859,-1.677767,-0.601522
1762522891.122192,-1.466687,-0.360171
1762522891.155526,-0.781719,-0.019148
1762522891.188859,0.188206,0.384513
1762522891.222193,1.224152,0.795443
1762522891.255527,2.057418,1.149323
1762522891.288860,2.510891,1.385753
1762522891.322194,2.435080,1.461157
1762522891.355528,1.992028,1.358031
1762522891.388861,1.234110,1.088248
1762522891.422195,0.475561,0.690147
1762522891.455528,-0.258263,0.220867
1762522891.488862,-0.739913,-0.253859
1762522891.522196,-1.080299,-0.670327
1762522891.555529,-1.260873,-0.976351
1762522891.588863,-1.403009,-1.138649
1762522891.622197,-1.471661,-1.147415
1762522891.655530,-1.469930,-1.017418
1762522891.688864,-1.280654,-0.785072
1762522891.722198,-0.917706,-0.501416
1762522891.755531,-0.323313,-0.221948
1762522891.788865,0.302788,0.004652
1762522891.822198,0.897175,0.146224
1762522891.855532,1.121849,0.192742
1762522891.888866,0.988734,0.156450
1762522891.922199,0.468980,0.066788
1762522891.955533,-0.220317,-0.038067
1762522891.988867,-0.867367,-0.120538
1762522892.022200,-1.165197,-0.151630
1762522892.055534,-0.996780,-0.116178
1762522892.088867,-0.442498,-0.014891
1762522892.122201,0.284992,0.136608
1762522892.155535,0.967824,0.311221
1762522892.188868,1.356539,0.475740
1762522892.222202,1.367559,0.597498
1762522892.255536,1.029003,0.651341
1762522892.288869,0.607191,0.625507
1762522892.322203,0.212059,0.524837
1762522892.355536,0.024121,0.370080
1762522892.388870,-0.003656,0.192963
1762522892.422204,0.082062,0.028061
1762522892.455537,0.099002,-0.096206
1762522892.488871,0.003052,-0.164741
1762522892.522205,-0.218983,-0.178934
1762522892.555538,-0.407165,-0.154988
1762522892.588872,-0.522958,-0.117997
1762522892.622205,-0.452001,-0.093611
1762522892.655539,-0.209505,-0.099786
1762522892.688873,0.081001,-0.141158
1762522892.722206,0.272769,-0.207731
1762522892.755540,0.206476,-0.278244
1762522892.788874,-0.180283,-0.327080
1762522892.822207,-0.643744,-0.332492
1762522892.855541,-1.089340,-0.283572
1762522892.888875,-1.183970,-0.183993
1762522892.922208,-0.944535,-0.051629
1762522892.955542,-0.274090,0.085559
1762522892.988876,0.454844,0.196117
1762522893.022209,1.117313,0.252452
1762522893.055543,1.295188,0.237340
1762522893.088876,1.014717,0.148389
1762522893.122210,0.285374,-0.000250
1762522893.155544,-0.549163,-0.179278
1762522893.188877,-1.258230,-0.348963
1762522893.222211,-1.550323,-0.467017
1762522893.255545,-1.375220,-0.498606
1762522893.288878,-0.798615,-0.426169
1762522893.322212,-0.162936,-0.255799
1762522893.355546,0.454921,-0.017387
1762522893.388879,0.832037,0.242461
1762522893.422213,1.026141,0.472996
1762522893.455546,0.976835,0.633268
1762522893.488880,0.889657,0.702408
1762522893.522214,0.785363,0.682630
1762522893.555547,0.747771,0.594357
1762522893.588881,0.587393,0.466187
1762522893.622215,0.501682,0.324291
1762522893.655548,0.255527,0.185529
1762522893.688882,0.142838,0.056374
1762522893.722215,-0.059089,-0.063324
1762522893.755549,-0.133660,-0.174830
1762522893.788883,-0.211652,-0.276577
1762522893.822216,-0.220721,-0.363428
1762522893.855550,-0.345915,-0.428615
1762522893.888884,-0.423359,-0.466493
1762522893.922217,-0.561371,-0.474283
1762522893.955551,-0.577334,-0.452135
1762522893.988884,-0.560380,-0.402046
1762522894.022218,-0.487072,-0.326882
1762522894.055552,-0.355860,-0.230338
1762522894.088885,-0.135615,-0.117656
1762522894.122219,-0.078568,0.003837
1762522894.155553,0.054181,0.125142
1762522894.188886,0.081685,0.236871
1762522894.222220,0.201658,0.330585
1762522894.255553,0.238002,0.399410
1762522894.288887,0.275432,0.437861
1762522894.322221,0.244904,0.441708
1762522894.355554,0.226833,0.408825
1762522894.388888,0.158779,0.341178
1762522894.422222,0.103230,0.246853
1762522894.455555,-0.035645,0.140440
1762522894.488889,-0.235633,0.040676
1762522894.522223,-0.372328,-0.034318
1762522894.555556,-0.582188,-0.072495
1762522894.588890,-0.652205,-0.071868
1762522894.622223,-0.535930,-0.041424
1762522894.655557,-0.329114,0.001406
1762522894.688891,0.002268,0.035762
1762522894.722224,0.307115,0.043119
1762522894.755558,0.513752,0.012108
1762522894.788892,0.435787,-0.058656
1762522894.822225,0.243637,-0.160197
1762522894.855559,-0.120685,-0.275197
1762522894.888892,-0.420757,-0.382037
1762522894.922226,-0.565903,-0.460035
1762522894.955560,-0.576307,-0.494626
1762522894.988894,-0.235446,-0.480910
1762522895.022227,0.114427,-0.424192
1762522895.055561,0.589159,-0.337268
1762522895.088894,0.950107,-0.337268
1762522895.122228,1.259118,-0.337268
1762522895.155562,1.257229,-0.337268
1762522895.188895,1.267698,-0.337268
1762522895.222229,0.234328,-0.029890
1762522895.255563,-0.044154,-0.373392
1762522895.288896,-0.553850,-0.691656
1762522895.322230,-1.208614,-0.909181
1762522895.355563,-1.733515,-0.971050
1762522895.388897,-1.898803,-0.857926
1762522895.422231,-1.482981,-0.588685
1762522895.455564,-0.597259,-0.211534
1762522895.488898,0.606604,0.209872
1762522895.522232,1.673290,0.608486
1762522895.555565,2.383700,0.921791
1762522895.588899,2.449920,1.097855
1762522895.622232,2.037496,1.102771
1762522895.655566,1.294114,0.929668
1762522895.688900,0.583503,0.605508
1762522895.722233,-0.033098,0.190129
1762522895.755567,-0.436520,-0.235550
1762522895.788901,-0.810100,-0.589844
1762522895.822234,-1.097972,-0.811751
1762522895.855568,-1.350039,-0.874816
1762522895.888901,-1.390151,-0.788211
1762522895.922235,-1.190314,-0.586256
1762522895.955569,-0.656600,-0.313223
1762522895.988902,0.032449,-0.011629
1762522896.022236,0.743277,0.281348
1762522896.055570,1.136623,0.530871
1762522896.088903,1.242795,0.701113
1762522896.122237,1.012699,0.757972
1762522896.155571,0.731574,0.679562
1762522896.188904,0.412323,0.469812
1762522896.222238,0.203162,0.166606
1762522896.255571,-0.113217,-0.162635
1762522896.288905,-0.495398,-0.438836
1762522896.322239,-1.048445,-0.596214
1762522896.355572,-1.522069,-0.603701
1762522896.388906,-1.752774,-0.473736
1762522896.422240,-1.425147,-0.255429
1762522896.455573,-0.613210,-0.016309
1762522896.488907,0.535241,0.178793
1762522896.522240,1.482107,0.283707
1762522896.555574,1.916496,0.278044
1762522896.588908,1.516252,0.166757
1762522896.622241,0.535156,-0.024140
1762522896.655575,-0.735225,-0.252871
1762522896.688909,-1.713715,-0.468031
1762522896.722242,-2.159221,-0.617065
1762522896.755576,-1.869963,-0.657750
1762522896.788909,-1.110071,-0.570463
1762522896.822243,-0.113843,-0.366427
1762522896.855577,0.705011,-0.087063
1762522896.888911,1.195202,0.207213
1762522896.922244,1.268160,0.455509
1762522896.955578,1.098683,0.615172
1762522896.988911,0.794563,0.673188
1762522897.022245,0.507404,0.646108
1762522897.055578,0.273333,0.569535
1762522897.088912,0.219525,0.482526
1762522897.122246,0.261670,0.413617
1762522897.155580,0.402278,0.373407
1762522897.188913,0.487229,0.355064
1762522897.222247,0.563520,0.340767
1762522897.255580,0.538468,0.310458
1762522897.288914,0.451382,0.249474
1762522897.322248,0.241363,0.152928
1762522897.355581,0.037944,0.026275
1762522897.388915,-0.198928,-0.117369
1762522897.422249,-0.372553,-0.261853
1762522897.455582,-0.537668,-0.393028
1762522897.488916,-0.644647,-0.502506
1762522897.522249,-0.743407,-0.588745
1762522897.555583,-0.784800,-0.654924
1762522897.588917,-0.783058,-0.704491
1762522897.622250,-0.760864,-0.736449
1762522897.655584,-0.736615,-0.742776
1762522897.688918,-0.765721,-0.709411
1762522897.722251,-0.813595,-0.620540
1762522897.755585,-0.839253,-0.464475
1762522897.788918,-0.765120,-0.238928
1762522897.822252,-0.505114,0.045779
1762522897.855586,-0.047144,0.365884
1762522897.888919,0.592385,0.685367
1762522897.922253,1.212364,0.959008
1762522897.955587,1.728452,1.137947
1762522897.988920,1.938467,1.178523
1762522898.022254,1.841384,1.054024
1762522898.055588,1.416702,0.766550
1762522898.088921,0.778815,0.354114
1762522898.122255,-0.022150,-0.111881
1762522898.155588,-0.856462,-0.540652
1762522898.188922,-1.599183,-0.844428
1762522898.222256,-2.088887,-0.961764
1762522898.255589,-2.160497,-0.873285
1762522898.288923,-1.679848,-0.604451
1762522898.322257,-0.720466,-0.215658
1762522898.355590,0.540118,0.214967
1762522898.388924,1.659375,0.608902
1762522898.422257,2.372206,0.899628
1762522898.455591,2.422777,1.039264
1762522898.488925,1.897472,1.001966
1762522898.522258,0.977651,0.786971
1762522898.555592,0.073820,0.421605
1762522898.588926,-0.598830,-0.038536
1762522898.622259,-0.963725,-0.516034
1762522898.655593,-1.140729,-0.926215
1762522898.688926,-1.293764,-1.196839
1762522898.722260,-1.483517,-1.286059
1762522898.755594,-1.699403,-1.191291
1762522898.788927,-1.734332,-0.945359
1762522898.822261,-1.404509,-0.602246
1762522898.855595,-0.687264,-0.219585
1762522898.888928,0.298428,0.154245
1762522898.922262,1.193564,0.484169
1762522898.955595,1.739811,0.745058
1762522898.988929,1.765273,0.916609
1762522899.022263,1.423767,0.982216
1762522899.055597,0.844029,0.933827
1762522899.088930,0.367021,0.779650
1762522899.122264,0.112016,0.548675
1762522899.155597,0.055030,0.287165
1762522899.188931,0.030517,0.046710
1762522899.222265,-0.036589,-0.131645
1762522899.255598,-0.243688,-0.230186
1762522899.288932,-0.489036,-0.258556
1762522899.322266,-0.648998,-0.247582
1762522899.355599,-0.564811,-0.236088
1762522899.388933,-0.317816,-0.256452
1762522899.422266,0.026094,-0.324244
1762522899.455600,0.231733,-0.434643
1762522899.488934,0.165911,-0.565119
1762522899.522267,-0.260329,-0.681894
1762522899.555601,-0.857335,-0.747572
1762522899.588935,-1.428916,-0.728494
1762522899.622268,-1.677767,-0.601522
1762522899.655602,-1.466687,-0.360171
1762522899.688936,-0.781719,-0.019148
1762522899.722269,0.188206,0.384513
1762522899.755603,1.224152,0.795443
1762522899.788936,2.057418,1.149323
1762522899.822270,2.510891,1.385753
1762522899.855604,2.435080,1.461157
1762522899.888937,1.992028,1.358031
1762522899.922271,1.234110,1.088248
1762522899.955605,0.475561,0.690147
1762522899.988938,-0.258263,0.220867
1762522900.022272,-0.739913,-0.253859
1762522900.055605,-1.080299,-0.670327
1762522900.088939,-1.260873,-0.976351
1762522900.122273,-1.403009,-1.138649
1762522900.155606,-1.471661,-1.147415
1762522900.188940,-1.469930,-1.017418
1762522900.222274,-1.280654,-0.785072
1762522900.255607,-0.917706,-0.501416
1762522900.288941,-0.323313,-0.221948
1762522900.322274,0.302788,0.004652
1762522900.355608,0.897175,0.146224
1762522900.388942,1.121849,0.192742
1762522900.422275,0.988734,0.156450
1762522900.455609,0.468980,0.066788
1762522900.488943,-0.220317,-0.038067
1762522900.522276,-0.867367,-0.120538
1762522900.555610,-1.165197,-0.151630
1762522900.588943,-0.996780,-0.116178
1762522900.622277,-0.442498,-0.014891
1762522900.655611,0.284992,0.136608
1762522900.688944,0.967824,0.311221
1762522900.722278,1.356539,0.475740
1762522900.755612,1.367559,0.597498
1762522900.788945,1.029003,0.651341
1762522900.822279,0.607191,0.625507
1762522900.855613,0.212059,0.524837
1762522900.888946,0.024121,0.370080
1762522900.922280,-0.003656,0.192963
1762522900.955613,0.082062,0.028061
1762522900.988947,0.099002,-0.096206
1762522901.022281,0.003052,-0.164741
1762522901.055614,-0.218983,-0.178934
1762522901.088948,-0.407165,-0.154988
1762522901.122282,-0.522958,-0.117997
1762522901.155615,-0.452001,-0.093611
1762522901.188949,-0.209505,-0.099786
1762522901.222282,0.081001,-0.141158
1762522901.255616,0.272769,-0.207731
1762522901.288950,0.206476,-0.278244
1762522901.322284,-0.180283,-0.327080
1762522901.355617,-0.643744,-0.332492
1762522901.388951,-1.089340,-0.283572
1762522901.422284,-1.183970,-0.183993
1762522901.455618,-0.944535,-0.051629
1762522901.488952,-0.274090,0.085559
1762522901.522285,0.454844,0.196117
1762522901.555619,1.117313,0.252452
1762522901.588953,1.295188,0.237340
1762522901.622286,1.014717,0.148389
1762522901.655620,0.285374,-0.000250
1762522901.688953,-0.549163,-0.179278
1762522901.722287,-1.258230,-0.348963
1762522901.755621,-1.550323,-0.467017
1762522901.788954,-1.375220,-0.498606
1762522901.822288,-0.798615,-0.426169
1762522901.855622,-0.162936,-0.255799
1762522901.888955,0.454921,-0.017387
1762522901.922289,0.832037,0.242461
1762522901.955622,1.026141,0.472996
1762522901.988956,0.976835,0.633268
1762522902.022290,0.889657,0.702408
1762522902.055623,0.785363,0.682630
1762522902.088957,0.747771,0.594357
1762522902.122291,0.587393,0.466187
1762522902.155624,0.501682,0.324291
1762522902.188958,0.255527,0.185529
1762522902.222291,0.142838,0.056374
1762522902.255625,-0.059089,-0.063324
1762522902.288959,-0.133660,-0.174830
1762522902.322292,-0.211652,-0.276577
1762522902.355626,-0.220721,-0.363428
1762522902.388960,-0.345915,-0.428615
1762522902.422293,-0.423359,-0.466493
1762522902.455627,-0.561371,-0.474283
1762522902.488961,-0.577334,-0.452135
1762522902.522294,-0.560380,-0.402046
1762522902.555628,-0.487072,-0.326882
1762522902.588961,-0.355860,-0.230338
1762522902.622295,-0.135615,-0.117656
1762522902.655629,-0.078568,0.003837
1762522902.688962,0.054181,0.125142
1762522902.722296,0.081685,0.236871
1762522902.755630,0.201658,0.330585
1762522902.788963,0.238002,0.399410
1762522902.822297,0.275432,0.437861
1762522902.855630,0.244904,0.441708
1762522902.888964,0.226833,0.408825
1762522902.922298,0.158779,0.341178
1762522902.955631,0.103230,0.246853
1762522902.988965,-0.035645,0.140440
1762522903.022299,-0.235633,0.040676
1762522903.055632,-0.372328,-0.034318
1762522903.088966,-0.582188,-0.072495
1762522903.122299,-0.652205,-0.071868
1762522903.155633,-0.535930,-0.041424
1762522903.188967,-0.329114,0.001406
1762522903.222301,0.002268,0.035762
1762522903.255634,0.307115,0.043119
1762522903.288968,0.513752,0.012108
1762522903.322301,0.435787,-0.058656
1762522903.355635,0.243637,-0.160197
1762522903.388968,-0.120685,-0.275197
1762522903.422302,-0.420757,-0.382037
1762522903.455636,-0.565903,-0.460035
1762522903.488970,-0.576307,-0.494626
1762522903.522303,-0.235446,-0.480910
1762522903.555637,0.114427,-0.424192
1762522903.588970,0.589159,-0.337268
1762522903.622304,0.950107,-0.337268
1762522903.655638,1.259118,-0.337268
1762522903.688971,1.257229,-0.337268
1762522903.722305,1.267698,-0.337268
1762522903.755639,0.234328,-0.029890
1762522903.788972,-0.044154,-0.373392
1762522903.822306,-0.553850,-0.691656
1762522903.855639,-1.208614,-0.909181
1762522903.888973,-1.733515,-0.971050
1762522903.922307,-1.898803,-0.857926
1762522903.955640,-1.482981,-0.588685
1762522903.988974,-0.597259,-0.211534
1762522904.022308,0.606604,0.209872
1762522904.055641,1.673290,0.608486
1762522904.088975,2.383700,0.921791
1762522904.122308,2.449920,1.097855
1762522904.155642,2.037496,1.102771
1762522904.188976,1.294114,0.929668
1762522904.222309,0.583503,0.605508
1762522904.255643,-0.033098,0.190129
1762522904.288977,-0.436520,-0.235550
1762522904.322310,-0.810100,-0.589844
1762522904.355644,-1.097972,-0.811751
1762522904.388978,-1.350039,-0.874816
1762522904.422311,-1.390151,-0.788211
1762522904.455645,-1.190314,-0.586256
1762522904.488978,-0.656600,-0.313223
1762522904.522312,0.032449,-0.011629
1762522904.555646,0.743277,0.281348
1762522904.588979,1.136623,0.530871
1762522904.622313,1.242795,0.701113
1762522904.655647,1.012699,0.757972
1762522904.688980,0.731574,0.679562
1762522904.722314,0.412323,0.469812
1762522904.755647,0.203162,0.166606
1762522904.788981,-0.113217,-0.162635
1762522904.822315,-0.495398,-0.438836
1762522904.855648,-1.048445,-0.596214
1762522904.888982,-1.522069,-0.603701
1762522904.922316,-1.752774,-0.473736
1762522904.955649,-1.425147,-0.255429
1762522904.988983,-0.613210,-0.016309
1762522905.022316,0.535241,0.178793
1762522905.055650,1.482107,0.283707
1762522905.088984,1.916496,0.278044
1762522905.122317,1.516252,0.166757
1762522905.155651,0.535156,-0.024140
1762522905.188985,-0.735225,-0.252871
1762522905.222318,-1.713715,-0.468031
1762522905.255652,-2.159221,-0.617065
1762522905.288985,-1.869963,-0.657750
1762522905.322319,-1.110071,-0.570463
1762522905.355653,-0.113843,-0.366427
1762522905.388987,0.705011,-0.087063
1762522905.422320,1.195202,0.207213
1762522905.455654,1.268160,0.455509
1762522905.488987,1.098683,0.615172
1762522905.522321,0.794563,0.673188
1762522905.555655,0.507404,0.646108
1762522905.588988,0.273333,0.569535
1762522905.622322,0.219525,0.482526
1762522905.655656,0.261670,0.413617
1762522905.688989,0.402278,0.373407
1762522905.722323,0.487229,0.355064
1762522905.755656,0.563520,0.340767
1762522905.788990,0.538468,0.310458
1762522905.822324,0.451382,0.249474
1762522905.855657,0.241363,0.152928
1762522905.888991,0.037944,0.026275
1762522905.922325,-0.198928,-0.117369
1762522905.955658,-0.372553,-0.261853
1762522905.988992,-0.537668,-0.393028
1762522906.022326,-0.644647,-0.502506
1762522906.055659,-0.743407,-0.588745
1762522906.088993,-0.784800,-0.654924
1762522906.122326,-0.783058,-0.704491
1762522906.155660,-0.760864,-0.736449
1762522906.188994,-0.736615,-0.742776
1762522906.222327,-0.765721,-0.709411
1762522906.255661,-0.813595,-0.620540
1762522906.288995,-0.839253,-0.464475
1762522906.322328,-0.765120,-0.238928
1762522906.355662,-0.505114,0.045779
1762522906.388995,-0.047144,0.365884
1762522906.422329,0.592385,0.685367
1762522906.455663,1.212364,0.959008
1762522906.488996,1.728452,1.137947
1762522906.522330,1.938467,1.178523
1762522906.555664,1.841384,1.054024
1762522906.588997,1.416702,0.766550
1762522906.622331,0.778815,0.354114
1762522906.655664,-0.022150,-0.111881
1762522906.688998,-0.856462,-0.540652
1762522906.722332,-1.599183,-0.844428
1762522906.755665,-2.088887,-0.961764
1762522906.788999,-2.160497,-0.873285
1762522906.822333,-1.679848,-0.604451
1762522906.855666,-0.720466,-0.215658
1762522906.889000,0.540118,0.214967
1762522906.922333,1.659375,0.608902
1762522906.955667,2.372206,0.899628
1762522906.989001,2.422777,1.039264
1762522907.022334,1.897472,1.001966
1762522907.055668,0.977651,0.786971
1762522907.089002,0.073820,0.421605
1762522907.122335,-0.598830,-0.038536
1762522907.155669,-0.963725,-0.516034
1762522907.189003,-1.140729,-0.926215
1762522907.222336,-1.293764,-1.196839
1762522907.255670,-1.483517,-1.286059
1762522907.289003,-1.699403,-1.191291
1762522907.322337,-1.734332,-0.945359
1762522907.355671,-1.404509,-0.602246
1762522907.389004,-0.687264,-0.219585
1762522907.422338,0.298428,0.154245
1762522907.455672,1.193564,0.484169
1762522907.489005,1.739811,0.745058
1762522907.522339,1.765273,0.916609
1762522907.555673,1.423767,0.982216
1762522907.589006,0.844029,0.933827
1762522907.622340,0.367021,0.779650
1762522907.655674,0.112016,0.548675
1762522907.689007,0.055030,0.287165
1762522907.722341,0.030517,0.046710
1762522907.755674,-0.036589,-0.131645
1762522907.789008,-0.243688,-0.230186
1762522907.822342,-0.489036,-0.258556
1762522907.855675,-0.648998,-0.247582
1762522907.889009,-0.564811,-0.236088
1762522907.922343,-0.317816,-0.256452
1762522907.955676,0.026094,-0.324244
1762522907.989010,0.231733,-0.434643
1762522908.022343,0.165911,-0.565119
1762522908.055677,-0.260329,-0.681894
1762522908.089011,-0.857335,-0.747572
1762522908.122344,-1.428916,-0.728494
1762522908.155678,-1.677767,-0.601522
1762522908.189012,-1.466687,-0.360171
1762522908.222345,-0.781719,-0.019148
1762522908.255679,0.188206,0.384513
1762522908.289012,1.224152,0.795443
1762522908.322346,2.057418,1.149323
1762522908.355680,2.510891,1.385753
1762522908.389013,2.435080,1.461157
1762522908.422347,1.992028,1.358031
1762522908.455681,1.234110,1.088248
1762522908.489014,0.475561,0.690147
1762522908.522348,-0.258263,0.220867
1762522908.555681,-0.739913,-0.253859
1762522908.589015,-1.080299,-0.670327
1762522908.622349,-1.260873,-0.976351
1762522908.655682,-1.403009,-1.138649
1762522908.689016,-1.471661,-1.147415
1762522908.722350,-1.469930,-1.017418
1762522908.755683,-1.280654,-0.785072
1762522908.789017,-0.917706,-0.501416
1762522908.822351,-0.323313,-0.221948
1762522908.855684,0.302788,0.004652
1762522908.889018,0.897175,0.146224
1762522908.922351,1.121849,0.192742
1762522908.955685,0.988734,0.156450
1762522908.989019,0.468980,0.066788
1762522909.022352,-0.220317,-0.038067
1762522909.055686,-0.867367,-0.120538
1762522909.089020,-1.165197,-0.151630
1762522909.122353,-0.996780,-0.116178
1762522909.155687,-0.442498,-0.014891
1762522909.189020,0.284992,0.136608
1762522909.222354,0.967824,0.311221
1762522909.255688,1.356539,0.475740
1762522909.289021,1.367559,0.597498
1762522909.322355,1.029003,0.651341
1762522909.355689,0.607191,0.625507
1762522909.389022,0.212059,0.524837
1762522909.422356,0.024121,0.370080
1762522909.455689,-0.003656,0.192963
1762522909.489023,0.082062,0.028061
1762522909.522357,0.099002,-0.096206
1762522909.555691,0.003052,-0.164741
1762522909.589024,-0.218983,-0.178934
1762522909.622358,-0.407165,-0.154988
1762522909.655691,-0.522958,-0.117997
1762522909.689025,-0.452001,-0.093611
1762522909.722358,-0.209505,-0.099786
1762522909.755692,0.081001,-0.141158
1762522909.789026,0.272769,-0.207731
1762522909.822360,0.206476,-0.278244
1762522909.855693,-0.180283,-0.327080
1762522909.889027,-0.643744,-0.332492
1762522909.922360,-1.089340,-0.283572
1762522909.955694,-1.183970,-0.183993
1762522909.989028,-0.944535,-0.051629
1762522910.022361,-0.274090,0.085559
1762522910.055695,0.454844,0.196117
1762522910.089029,1.117313,0.252452
1762522910.122362,1.295188,0.237340
1762522910.155696,1.014717,0.148389
1762522910.189029,0.285374,-0.000250
1762522910.222363,-0.549163,-0.179278
1762522910.255697,-1.258230,-0.348963
1762522910.289030,-1.550323,-0.467017
1762522910.322364,-1.375220,-0.498606
1762522910.355698,-0.798615,-0.426169
1762522910.389031,-0.162936,-0.255799
1762522910.422365,0.454921,-0.017387
1762522910.455698,0.832037,0.242461
1762522910.489032,1.026141,0.472996
1762522910.522366,0.976835,0.633268
1762522910.555699,0.889657,0.702408
1762522910.589033,0.785363,0.682630
1762522910.622367,0.747771,0.594357
1762522910.655700,0.587393,0.466187
1762522910.689034,0.501682,0.324291
1762522910.722368,0.255527,0.185529
1762522910.755701,0.142838,0.056374
1762522910.789035,-0.059089,-0.063324
1762522910.822368,-0.133660,-0.174830
1762522910.855702,-0.211652,-0.276577
1762522910.889036,-0.220721,-0.363428
1762522910.922369,-0.345915,-0.428615
1762522910.955703,-0.423359,-0.466493
1762522910.989037,-0.561371,-0.474283
1762522911.022370,-0.577334,-0.452135
1762522911.055704,-0.560380,-0.402046
1762522911.089037,-0.487072,-0.326882
1762522911.122371,-0.355860,-0.230338
1762522911.155705,-0.135615,-0.117656
1762522911.189038,-0.078568,0.003837
1762522911.222372,0.054181,0.125142
1762522911.255706,0.081685,0.236871
1762522911.289039,0.201658,0.330585
1762522911.322373,0.238002,0.399410
1762522911.355706,0.275432,0.437861
1762522911.389040,0.244904,0.441708
1762522911.422374,0.226833,0.408825
1762522911.455707,0.158779,0.341178
1762522911.489041,0.103230,0.246853
1762522911.522375,-0.035645,0.140440
1762522911.555708,-0.235633,0.040676
1762522911.589042,-0.372328,-0.034318
1762522911.622375,-0.582188,-0.072495
1762522911.655709,-0.652205,-0.071868
1762522911.689043,-0.535930,-0.041424
1762522911.722377,-0.329114,0.001406
1762522911.755710,0.002268,0.035762
1762522911.789044,0.307115,0.043119
1762522911.822377,0.513752,0.012108
1762522911.855711,0.435787,-0.058656
1762522911.889045,0.243637,-0.160197
1762522911.922378,-0.120685,-0.275197
1762522911.955712,-0.420757,-0.382037
1762522911.989046,-0.565903,-0.460035
1762522912.022379,-0.576307,-0.494626
1762522912.055713,-0.235446,-0.480910
1762522912.089046,0.114427,-0.424192
1762522912.122380,0.589159,-0.337268
1762522912.155714,0.950107,-0.337268
1762522912.189047,1.259118,-0.337268
1762522912.222381,1.257229,-0.337268
1762522912.255715,1.267698,-0.337268
1762522912.289048,0.234328,-0.029890
1762522912.322382,-0.044154,-0.373392
1762522912.355716,-0.553850,-0.691656
1762522912.389049,-1.208614,-0.909181
1762522912.422383,-1.733515,-0.971050
1762522912.455716,-1.898803,-0.857926
1762522912.489050,-1.482981,-0.588685
1762522912.522384,-0.597259,-0.211534
1762522912.555717,0.606604,0.209872
1762522912.589051,1.673290,0.608486
1762522912.622385,2.383700,0.921791
1762522912.655718,2.449920,1.097855
1762522912.689052,2.037496,1.102771
1762522912.722385,1.294114,0.929668
1762522912.755719,0.583503,0.605508
1762522912.789053,-0.033098,0.190129
1762522912.822386,-0.436520,-0.235550
1762522912.855720,-0.810100,-0.589844
1762522912.889054,-1.097972,-0.811751
1762522912.922387,-1.350039,-0.874816
1762522912.955721,-1.390151,-0.788211
1762522912.989054,-1.190314,-0.586256
1762522913.022388,-0.656600,-0.313223
1762522913.055722,0.032449,-0.011629
1762522913.089055,0.743277,0.281348
1762522913.122389,1.136623,0.530871
1762522913.155723,1.242795,0.701113
1762522913.189056,1.012699,0.757972
1762522913.222390,0.731574,0.679562
1762522913.255723,0.412323,0.469812
1762522913.289057,0.203162,0.166606
1762522913.322391,-0.113217,-0.162635
1762522913.355724,-0.495398,-0.438836
1762522913.389058,-1.048445,-0.596214
1762522913.422392,-1.522069,-0.603701
1762522913.455725,-1.752774,-0.473736
1762522913.489059,-1.425147,-0.255429
1762522913.522393,-0.613210,-0.016309
1762522913.555726,0.535241,0.178793
1762522913.589060,1.482107,0.283707
1762522913.622393,1.916496,0.278044
1762522913.655727,1.516252,0.166757
1762522913.689061,0.535156,-0.024140
1762522913.722394,-0.735225,-0.252871
1762522913.755728,-1.713715,-0.468031
1762522913.789062,-2.159221,-0.617065
1762522913.822395,-1.869963,-0.657750
1762522913.855729,-1.110071,-0.570463
1762522913.889063,-0.113843,-0.366427
1762522913.922396,0.705011,-0.087063
1762522913.955730,1.195202,0.207213
1762522913.989064,1.268160,0.455509
1762522914.022397,1.098683,0.615172
1762522914.055731,0.794563,0.673188
1762522914.089064,0.507404,0.646108
1762522914.122398,0.273333,0.569535
1762522914.155732,0.219525,0.482526
1762522914.189065,0.261670,0.413617
1762522914.222399,0.402278,0.373407
1762522914.255733,0.487229,0.355064
1762522914.289066,0.563520,0.340767
1762522914.322400,0.538468,0.310458
1762522914.355733,0.451382,0.249474
1762522914.389067,0.241363,0.152928
1762522914.422401,0.037944,0.026275
1762522914.455734,-0.198928,-0.117369
1762522914.489068,-0.372553,-0.261853
1762522914.522402,-0.537668,-0.393028
1762522914.555735,-0.644647,-0.502506
1762522914.589069,-0.743407,-0.588745
1762522914.622402,-0.784800,-0.654924
1762522914.655736,-0.783058,-0.704491
1762522914.689070,-0.760864,-0.736449
1762522914.722403,-0.736615,-0.742776
1762522914.755737,-0.765721,-0.709411
1762522914.789071,-0.813595,-0.620540
1762522914.822404,-0.839253,-0.464475
1762522914.855738,-0.765120,-0.238928
1762522914.889071,-0.505114,0.045779
1762522914.922405,-0.047144,0.365884
1762522914.955739,0.592385,0.685367
1762522914.989072,1.212364,0.959008
1762522915.022406,1.728452,1.137947
1762522915.055740,1.938467,1.178523
1762522915.089073,1.841384,1.054024
1762522915.122407,1.416702,0.766550
1762522915.155740,0.778815,0.354114
1762522915.189074,-0.022150,-0.111881
1762522915.222408,-0.856462,-0.540652
1762522915.255741,-1.599183,-0.844428
1762522915.289075,-2.088887,-0.961764
1762522915.322409,-2.160497,-0.873285
1762522915.355742,-1.679848,-0.604451
1762522915.389076,-0.720466,-0.215658
1762522915.422410,0.540118,0.214967
1762522915.455743,1.659375,0.608902
1762522915.489077,2.372206,0.899628
1762522915.522410,2.422777,1.039264
1762522915.555744,1.897472,1.001966
1762522915.589078,0.977651,0.786971
1762522915.622411,0.073820,0.421605
1762522915.655745,-0.598830,-0.038536
1762522915.689079,-0.963725,-0.516034
1762522915.722412,-1.140729,-0.926215
1762522915.755746,-1.293764,-1.196839
1762522915.789079,-1.483517,-1.286059
1762522915.822413,-1.699403,-1.191291
1762522915.855747,-1.734332,-0.945359
1762522915.889081,-1.404509,-0.602246
1762522915.922414,-0.687264,-0.219585
1762522915.955748,0.298428,0.154245
1762522915.989081,1.193564,0.484169
1762522916.022415,1.739811,0.745058
1762522916.055749,1.765273,0.916609
1762522916.089082,1.423767,0.982216
1762522916.122416,0.844029,0.933827
1762522916.155750,0.367021,0.779650
1762522916.189083,0.112016,0.548675
1762522916.222417,0.055030,0.287165
1762522916.255750,0.030517,0.046710
1762522916.289084,-0.036589,-0.131645
1762522916.322418,-0.243688,-0.230186
1762522916.355751,-0.489036,-0.258556
1762522916.389085,-0.648998,-0.247582
1762522916.422419,-0.564811,-0.236088
1762522916.455752,-0.317816,-0.256452
1762522916.489086,0.026094,-0.324244
1762522916.522419,0.231733,-0.434643
1762522916.555753,0.165911,-0.565119
1762522916.589087,-0.260329,-0.681894
1762522916.622420,-0.857335,-0.747572
1762522916.655754,-1.428916,-0.728494
1762522916.689088,-1.677767,-0.601522
1762522916.722421,-1.466687,-0.360171
1762522916.755755,-0.781719,-0.019148
1762522916.789088,0.188206,0.384513
1762522916.822422,1.224152,0.795443
1762522916.855756,2.057418,1.149323
1762522916.889089,2.510891,1.385753
1762522916.922423,2.435080,1.461157
1762522916.955757,1.992028,1.358031
1762522916.989090,1.234110,1.088248
1762522917.022424,0.475561,0.690147
1762522917.055758,-0.258263,0.220867
1762522917.089091,-0.739913,-0.253859
1762522917.122425,-1.080299,-0.670327
1762522917.155758,-1.260873,-0.976351
1762522917.189092,-1.403009,-1.138649
1762522917.222426,-1.471661,-1.147415
1762522917.255759,-1.469930,-1.017418
1762522917.289093,-1.280654,-0.785072
1762522917.322427,-0.917706,-0.501416
1762522917.355760,-0.323313,-0.221948
1762522917.389094,0.302788,0.004652
1762522917.422427,0.897175,0.146224
1762522917.455761,1.121849,0.192742
1762522917.489095,0.988734,0.156450
1762522917.522428,0.468980,0.066788
1762522917.555762,-0.220317,-0.038067
1762522917.589096,-0.867367,-0.120538
1762522917.622429,-1.165197,-0.151630
1762522917.655763,-0.996780,-0.116178
1762522917.689096,-0.442498,-0.014891
1762522917.722430,0.284992,0.136608
1762522917.755764,0.967824,0.311221
1762522917.789097,1.356539,0.475740
1762522917.822431,1.367559,0.597498
1762522917.855765,1.029003,0.651341
1762522917.889098,0.607191,0.625507
1762522917.922432,0.212059,0.524837
1762522917.955765,0.024121,0.370080
1762522917.989099,-0.003656,0.192963
1762522918.022433,0.082062,0.028061
1762522918.055767,0.099002,-0.096206
1762522918.089100,0.003052,-0.164741
1762522918.122434,-0.218983,-0.178934
1762522918.155767,-0.407165,-0.154988
1762522918.189101,-0.522958,-0.117997
1762522918.222435,-0.452001,-0.093611
1762522918.255768,-0.209505,-0.099786
1762522918.289102,0.081001,-0.141158
1762522918.322436,0.272769,-0.207731
1762522918.355769,0.206476,-0.278244
1762522918.389103,-0.180283,-0.327080
1762522918.422436,-0.643744,-0.332492
1762522918.455770,-1.089340,-0.283572
1762522918.489104,-1.183970,-0.183993
1762522918.522437,-0.944535,-0.051629
1762522918.555771,-0.274090,0.085559
1762522918.589105,0.454844,0.196117
1762522918.622438,1.117313,0.252452
1762522918.655772,1.295188,0.237340
1762522918.689106,1.014717,0.148389
1762522918.722439,0.285374,-0.000250
1762522918.755773,-0.549163,-0.179278
1762522918.789106,-1.258230,-0.348963
1762522918.822440,-1.550323,-0.467017
1762522918.855774,-1.375220,-0.498606
1762522918.889107,-0.798615,-0.426169
1762522918.922441,-0.162936,-0.255799
1762522918.955775,0.454921,-0.017387
1762522918.989108,0.832037,0.242461
1762522919.022442,1.026141,0.472996
1762522919.055775,0.976835,0.633268
1762522919.089109,0.889657,0.702408
1762522919.122443,0.785363,0.682630
1762522919.155776,0.747771,0.594357
1762522919.189110,0.587393,0.466187
1762522919.222444,0.501682,0.324291
1762522919.255777,0.255527,0.185529
1762522919.289111,0.142838,0.056374
1762522919.322444,-0.059089,-0.063324
1762522919.355778,-0.133660,-0.174830
1762522919.389112,-0.211652,-0.276577
1762522919.422445,-0.220721,-0.363428
1762522919.455779,-0.345915,-0.428615
1762522919.489113,-0.423359,-0.466493
1762522919.522446,-0.561371,-0.474283
1762522919.555780,-0.577334,-0.452135
1762522919.589113,-0.560380,-0.402046
1762522919.622447,-0.487072,-0.326882
1762522919.655781,-0.355860,-0.230338
1762522919.689114,-0.135615,-0.117656
1762522919.722448,-0.078568,0.003837
1762522919.755782,0.054181,0.125142
1762522919.789115,0.081685,0.236871
1762522919.822449,0.201658,0.330585
1762522919.855783,0.238002,0.399410
1762522919.889116,0.275432,0.437861
1762522919.922450,0.244904,0.441708
1762522919.955783,0.226833,0.408825
1762522919.989117,0.158779,0.341178
1762522920.022451,0.103230,0.246853
1762522920.055784,-0.035645,0.140440
1762522920.089118,-0.235633,0.040676
1762522920.122452,-0.372328,-0.034318
1762522920.155785,-0.582188,-0.072495
1762522920.189119,-0.652205,-0.071868
1762522920.222453,-0.535930,-0.041424
1762522920.255786,-0.329114,0.001406
1762522920.289120,0.002268,0.035762
1762522920.322453,0.307115,0.043119
1762522920.355787,0.513752,0.012108
1762522920.389121,0.435787,-0.058656
1762522920.422454,0.243637,-0.160197
1762522920.455788,-0.120685,-0.275197
1762522920.489122,-0.420757,-0.382037
1762522920.522455,-0.565903,-0.460035
1762522920.555789,-0.576307,-0.494626
1762522920.589123,-0.235446,-0.480910
1762522920.622456,0.114427,-0.424192
1762522920.655790,0.589159,-0.337268
1762522920.689123,0.950107,-0.337268
1762522920.722457,1.259118,-0.337268
1762522920.755791,1.257229,-0.337268
1762522920.789124,1.267698,-0.337268
1762522920.822458,0.234328,-0.016532
1762522920.855792,-0.044154,-0.352551
1762522920.889125,-0.553850,-0.663854
1762522920.922459,-1.208614,-0.876542
1762522920.955792,-1.733515,-0.936866
1762522920.989126,-1.898803,-0.825903
1762522921.022460,-1.482981,-0.562134
1762522921.055793,-0.597259,-0.192750
1762522921.089127,0.606604,0.219935
1762522921.122461,1.673290,0.610292
1762522921.155794,2.383700,0.917120
1762522921.189128,2.449920,1.089588
1762522921.222461,2.037496,1.094503
1762522921.255795,1.294114,0.925140
1762522921.289129,0.583503,0.607892
1762522921.322462,-0.033098,0.201334
1762522921.355796,-0.436520,-0.215326
1762522921.389130,-0.810100,-0.562129
1762522921.422463,-1.097972,-0.779360
1762522921.455797,-1.350039,-0.841122
1762522921.489130,-1.390151,-0.756389
1762522921.522464,-1.190314,-0.558754
1762522921.555798,-0.656600,-0.291552
1762522921.589131,0.032449,0.003602
1762522921.622465,0.743277,0.290318
1762522921.655799,1.136623,0.534497
1762522921.689132,1.242795,0.701072
1762522921.722466,1.012699,0.756662
1762522921.755800,0.731574,0.679848
1762522921.789133,0.412323,0.474474
1762522921.822467,0.203162,0.177624
1762522921.855800,-0.113217,-0.144703
1762522921.889134,-0.495398,-0.415106
1762522921.922468,-1.048445,-0.569193
1762522921.955801,-1.522069,-0.576550
1762522921.989135,-1.752774,-0.449355
1762522922.022469,-1.425147,-0.235681
1762522922.055802,-0.613210,-0.001628
1762522922.089136,0.535241,0.189345
1762522922.122469,1.482107,0.292040
1762522922.155803,1.916496,0.286501
1762522922.189137,1.516252,0.177576
1762522922.222471,0.535156,-0.009273
1762522922.255804,-0.735225,-0.233154
1762522922.289138,-1.713715,-0.443748
1762522922.322471,-2.159221,-0.589614
1762522922.355805,-1.869963,-0.629420
1762522922.389139,-1.110071,-0.543960
1762522922.422472,-0.113843,-0.344219
1762522922.455806,0.705011,-0.070743
1762522922.489140,1.195202,0.217328
1762522922.522473,1.268160,0.460391
1762522922.555807,1.098683,0.616693
1762522922.589140,0.794563,0.673496
1762522922.622474,0.507404,0.647000
1762522922.655808,0.273333,0.572056
1762522922.689141,0.219525,0.486895
1762522922.722475,0.261670,0.419449
1762522922.755809,0.402278,0.380094
1762522922.789142,0.487229,0.362142
1762522922.822476,0.563520,0.348148
1762522922.855809,0.538468,0.318481
1762522922.889143,0.451382,0.258785
1762522922.922477,0.241363,0.164280
1762522922.955810,0.037944,0.040302
1762522922.989144,-0.198928,-0.100308
1762522923.022478,-0.372553,-0.241740
1762522923.055811,-0.537668,-0.370145
1762522923.089145,-0.644647,-0.477312
1762522923.122478,-0.743407,-0.561731
1762522923.155812,-0.784800,-0.626514
1762522923.189146,-0.783058,-0.675037
1762522923.222479,-0.760864,-0.706322
1762522923.255813,-0.736615,-0.712519
1762522923.289147,-0.765721,-0.679861
1762522923.322480,-0.813595,-0.592871
1762522923.355814,-0.839253,-0.440108
1762522923.389148,-0.765120,-0.219332
1762522923.422481,-0.505114,0.059353
1762522923.455815,-0.047144,0.372689
1762522923.489148,0.592385,0.685415
1762522923.522482,1.212364,0.953269
1762522923.555816,1.728452,1.128422
1762522923.589149,1.938467,1.168138
1762522923.622483,1.841384,1.046269
1762522923.655817,1.416702,0.764870
1762522923.689150,0.778815,0.361151
1762522923.722484,-0.022150,-0.094995
1762522923.755817,-0.856462,-0.514704
1762522923.789151,-1.599183,-0.812062
1762522923.822485,-2.088887,-0.926922
1762522923.855818,-2.160497,-0.840319
1762522923.889152,-1.679848,-0.577175
1762522923.922486,-0.720466,-0.196608
1762522923.955819,0.540118,0.224907
1762522923.989153,1.659375,0.610508
1762522924.022486,2.372206,0.895082
1762522924.055820,2.422777,1.031761
1762522924.089154,1.897472,0.995247
1762522924.122488,0.977651,0.784796
1762522924.155821,0.073820,0.427154
1762522924.189155,-0.598830,-0.023258
1762522924.222488,-0.963725,-0.490659
1762522924.255822,-1.140729,-0.892163
1762522924.289155,-1.293764,-1.157059
1762522924.322489,-1.483517,-1.244385
1762522924.355823,-1.699403,-1.151611
1762522924.389157,-1.734332,-0.910866
1762522924.422490,-1.404509,-0.574993
1762522924.455824,-0.687264,-0.200406
1762522924.489157,0.298428,0.165539
1762522924.522491,1.193564,0.488508
1762522924.555825,1.739811,0.743904
1762522924.589158,1.765273,0.911851
1762522924.622492,1.423767,0.976095
1762522924.655826,0.844029,0.928754
1762522924.689159,0.367021,0.777861
1762522924.722493,0.112016,0.551793
1762522924.755826,0.055030,0.295833
1762522924.789160,0.030517,0.060481
1762522924.822494,-0.036589,-0.114088
1762522924.855827,-0.243688,-0.210534
1762522924.889161,-0.489036,-0.238298
1762522924.922495,-0.648998,-0.227554
1762522924.955828,-0.564811,-0.216309
1762522924.989162,-0.317816,-0.236255
1762522925.022496,0.026094,-0.302634
1762522925.055829,0.231733,-0.410727
1762522925.089163,0.165911,-0.538480
1762522925.122496,-0.260329,-0.652831
1762522925.155830,-0.857335,-0.717173
1762522925.189164,-1.428916,-0.698559
1762522925.222497,-1.677767,-0.574340
1762522925.255831,-1.466687,-0.338166
1762522925.289165,-0.781719,-0.004433
1762522925.322498,0.188206,0.390608
1762522925.355832,1.224152,0.792764
1762522925.389165,2.057418,1.139074
1762522925.422499,2.510891,1.370420
1762522925.455833,2.435080,1.444148
1762522925.489166,1.992028,1.343127
1762522925.522500,1.234110,1.078983
1762522925.555834,0.475561,0.689245
1762522925.589167,-0.258263,0.229847
1762522925.622501,-0.739913,-0.234864
1762522925.655834,-1.080299,-0.642528
1762522925.689168,-1.260873,-0.942062
1762522925.722502,-1.403009,-1.100884
1762522925.755835,-1.471661,-1.109392
1762522925.789169,-1.469930,-0.982045
1762522925.822503,-1.280654,-0.754483
1762522925.855836,-0.917706,-0.476667
1762522925.889170,-0.323313,-0.202922
1762522925.922503,0.302788,0.019101
1762522925.955837,0.897175,0.157919
1762522925.989171,1.121849,0.203715
1762522926.022504,0.988734,0.168470
1762522926.055838,0.468980,0.080998
1762522926.089172,-0.220317,-0.021338
1762522926.122505,-0.867367,-0.101761
1762522926.155839,-1.165197,-0.131897
1762522926.189173,-0.996780,-0.096911
1762522926.222506,-0.442498,0.002496
1762522926.255840,0.284992,0.151021
1762522926.289173,0.967824,0.322130
1762522926.322507,1.356539,0.483306
1762522926.355841,1.367559,0.602564
1762522926.389174,1.029003,0.655273
1762522926.422508,0.607191,0.629910
1762522926.455842,0.212059,0.531207
1762522926.489175,0.024121,0.379468
1762522926.522509,-0.003656,0.205743
1762522926.555843,0.082062,0.043875
1762522926.589176,0.099002,-0.078320
1762522926.622510,0.003052,-0.146061
1762522926.655843,-0.218983,-0.160705
1762522926.689177,-0.407165,-0.138104
1762522926.722511,-0.522958,-0.102813
1762522926.755844,-0.452001,-0.079924
1762522926.789178,-0.209505,-0.086998
1762522926.822512,0.081001,-0.128552
1762522926.855845,0.272769,-0.194778
1762522926.889179,0.206476,-0.264839
1762522926.922513,-0.180283,-0.313632
1762522926.955846,-0.643744,-0.319836
1762522926.989180,-1.089340,-0.272745
1762522927.022513,-1.183970,-0.175917
1762522927.055847,-0.944535,-0.046815
1762522927.089181,-0.274090,0.087223
1762522927.122514,0.454844,0.195442
1762522927.155848,1.117313,0.250862
1762522927.189182,1.295188,0.236649
1762522927.222515,1.014717,0.150484
1762522927.255849,0.285374,0.006237
1762522927.289182,-0.549163,-0.167405
1762522927.322516,-1.258230,-0.331546
1762522927.355850,-1.550323,-0.444799
1762522927.389183,-1.375220,-0.473083
1762522927.422517,-0.798615,-0.399231
1762522927.455851,-0.162936,-0.229248
1762522927.489184,0.454921,0.007561
1762522927.522518,0.832037,0.265515
1762522927.555851,1.026141,0.494869
1762522927.589185,0.976835,0.655455
1762522927.622519,0.889657,0.726755
1762522927.655852,0.785363,0.710836
1762522927.689186,0.747771,0.627580
1762522927.722520,0.587393,0.504868
1762522927.755853,0.501682,0.368198
1762522927.789187,0.255527,0.233956
1762522927.822520,0.142838,0.108361
1762522927.855854,-0.059089,-0.008846
1762522927.889188,-0.133660,-0.119008
1762522927.922521,-0.211652,-0.220683
1762522927.955855,-0.220721,-0.308915
1762522927.989189,-0.345915,-0.377138
1762522928.022522,-0.423359,-0.419858
1762522928.055856,-0.561371,-0.434364
1762522928.089190,-0.577334,-0.420779
1762522928.122523,-0.560380,-0.381002
1762522928.155857,-0.487072,-0.317744
1762522928.189190,-0.355860,-0.234486
1762522928.222524,-0.135615,-0.136181
1762522928.255858,-0.078568,-0.029782
1762522928.289191,0.054181,0.076155
1762522928.322525,0.081685,0.172723
1762522928.355859,0.201658,0.251975
1762522928.389192,0.238002,0.307527
1762522928.422526,0.275432,0.334405
1762522928.455859,0.244904,0.328913
1762522928.489193,0.226833,0.289460
1762522928.522527,0.158779,0.218475
1762522928.555861,0.103230,0.124335
1762522928.589194,-0.035645,0.021699
1762522928.622528,-0.235633,-0.070812
1762522928.655861,-0.372328,-0.135213
1762522928.689195,-0.582188,-0.159372
1762522928.722529,-0.652205,-0.140784
1762522928.755862,-0.535930,-0.087454
1762522928.789196,-0.329114,-0.015606
1762522928.822530,0.002268,0.054829
1762522928.855863,0.307115,0.105433
1762522928.889197,0.513752,0.123912
1762522928.922530,0.435787,0.107346
1762522928.955864,0.243637,0.063693
1762522928.989198,-0.120685,0.011053
1762522929.022531,-0.420757,-0.025911
1762522929.055865,-0.565903,-0.022689
1762522929.089199,-0.576307,0.036156
1762522929.122532,-0.235446,0.148555
1762522929.155866,0.114427,0.290969
1762522929.189199,0.589159,0.421947
1762522929.222533,0.950107,0.493014
1762522929.255867,1.259118,0.462982
1762522929.289200,1.257229,0.310714
1762522929.322534,1.267698,0.043117
1762522929.355868,-0.183497,-0.303091
1762522929.389201,-0.753436,-0.666633
1762522929.422535,-1.342754,-0.974003
1762522929.455868,-1.923778,-1.156970
1762522929.489202,-2.135069,-1.170767
1762522929.522536,-1.968375,-1.006639
1762522929.555869,-1.252297,-0.693267
1762522929.589203,-0.291779,-0.286390
1762522929.622537,0.852333,0.148029
1762522929.655870,1.707474,0.549315
1762522929.689204,2.222074,0.871391
1762522929.722538,2.089881,1.085773
1762522929.755871,1.675198,1.181090
1762522929.789205,1.081331,1.161893
1762522929.822538,0.711230,1.047395
1762522929.855872,0.490630,0.868584
1762522929.889206,0.621459,0.661880
1762522929.922539,0.718358,0.459529
1762522929.955873,0.786339,0.279878
1762522929.989207,0.511174,0.122265
1762522930.022540,0.169651,-0.030010
1762522930.055874,-0.312866,-0.198914
1762522930.089207,-0.563082,-0.397681
1762522930.122541,-0.756314,-0.620341
1762522930.155875,-0.742312,-0.840091
1762522930.189208,-0.875949,-1.017296
1762522930.222542,-1.043779,-1.113008
1762522930.255876,-1.392498,-1.101389
1762522930.289209,-1.584181,-0.975768
1762522930.322543,-1.617337,-0.747169
1762522930.355876,-1.195979,-0.438407
1762522930.389210,-0.511484,-0.078643
1762522930.422544,0.403187,0.298421
1762522930.455878,1.152499,0.653423
1762522930.489211,1.679242,0.941256
1762522930.522545,1.757782,1.116231
1762522930.555878,1.621542,1.143371
1762522930.589212,1.267263,1.011993
1762522930.622545,0.905783,0.744703
1762522930.655879,0.410880,0.395873
1762522930.689213,-0.071097,0.038290
1762522930.722547,-0.646471,-0.257516
1762522930.755880,-1.093243,-0.443100
1762522930.789214,-1.389292,-0.503402
1762522930.822547,-1.281441,-0.455991
1762522930.855881,-0.843249,-0.340180
1762522930.889215,-0.099198,-0.201801
1762522930.922548,0.571692,-0.080012
1762522930.955882,1.035875,-0.000068
1762522930.989216,1.001027,0.027836
1762522931.022549,0.572667,0.006284
1762522931.055883,-0.132491,-0.052140
1762522931.089216,-0.700596,-0.127021
1762522931.122550,-0.980954,-0.192659
1762522931.155884,-0.847175,-0.222673
1762522931.189217,-0.446925,-0.197033
1762522931.222551,0.078486,-0.109494
1762522931.255885,0.496597,0.028238
1762522931.289218,0.695984,0.188650
1762522931.322552,0.675419,0.336977
1762522931.355886,0.605625,0.442880
1762522931.389219,0.513283,0.490085
1762522931.422553,0.486577,0.479784
1762522931.455886,0.455852,0.426745
1762522931.489220,0.452468,0.350708
1762522931.522554,0.380956,0.267704
1762522931.555887,0.281863,0.185384
1762522931.589221,0.115457,0.103752
1762522931.622555,0.003251,0.019656
1762522931.655888,-0.089870,-0.068337
1762522931.689222,-0.131650,-0.157584
1762522931.722555,-0.227959,-0.242455
1762522931.755889,-0.293543,-0.317527
1762522931.789223,-0.405878,-0.380342
1762522931.822556,-0.487001,-0.431732
1762522931.855890,-0.558739,-0.473488
1762522931.889224,-0.551924,-0.504991
1762522931.922557,-0.517244,-0.520970
1762522931.955891,-0.505285,-0.511778
1762522931.989224,-0.525283,-0.466113
1762522932.022558,-0.557137,-0.374920
1762522932.055892,-0.507634,-0.234813
1762522932.089225,-0.394193,-0.049857
1762522932.122559,-0.151022,0.168555
1762522932.155893,0.196699,0.403246
1762522932.189226,0.631096,0.633494
1762522932.222560,1.036025,0.837390
1762522932.255893,1.310259,0.994081
1762522932.289227,1.426394,1.085888
1762522932.322561,1.379340,1.100393
1762522932.355894,1.196007,1.032450
1762522932.389228,0.908867,0.885717
1762522932.422562,0.626143,0.672939
1762522932.455895,0.352203,0.414297
1762522932.489229,0.109621,0.133654
1762522932.522563,-0.163572,-0.146570
1762522932.555896,-0.410941,-0.410221
1762522932.589230,-0.697586,-0.649772
1762522932.622564,-0.948899,-0.864705
1762522932.655897,-1.172129,-1.056210
1762522932.689231,-1.246409,-1.220586
1762522932.722564,-1.280403,-1.344756
1762522932.755898,-1.289676,-1.406626
1762522932.789232,-1.361271,-1.380745
1762522932.822565,-1.414310,-1.247107
1762522932.855899,-1.390918,-0.999339
1762522932.889233,-1.185617,-0.648912
1762522932.922566,-0.702328,-0.224110
1762522932.955900,0.049237,0.235129
1762522932.989233,0.985958,0.684069
1762522933.022567,1.827432,1.079624
1762522933.055901,2.359276,1.385541
1762522933.089234,2.520601,1.576457
1762522933.122568,2.315364,1.641084
1762522933.155902,1.892693,1.584021
1762522933.189235,1.339947,1.425058
1762522933.222569,0.908395,1.195103
1762522933.255903,0.587797,0.929338
1762522933.289236,0.414801,0.659692
1762522933.322570,0.301423,0.409205
1762522933.355903,0.218993,0.189908
1762522933.389237,0.090924,0.004153
1762522933.422571,-0.109811,-0.152254
1762522933.455904,-0.384032,-0.287200
1762522933.489238,-0.602848,-0.410863
1762522933.522572,-0.798342,-0.535138
1762522933.555905,-0.906402,-0.672091
1762522933.589239,-0.978326,-0.830106
1762522933.622572,-0.960003,-1.008372
1762522933.655906,-0.957015,-1.192388
1762522933.689240,-1.096462,-1.353656
1762522933.722573,-1.418878,-1.455114
1762522933.755907,-1.853183,-1.460866
1762522933.789241,-2.177947,-1.346412
1762522933.822574,-2.232531,-1.105414
1762522933.855908,-1.815286,-0.751135
1762522933.889241,-0.951430,-0.313449
1762522933.922575,0.201210,0.166221
1762522933.955909,1.336046,0.640173
1762522933.989242,2.083458,1.059621
1762522934.022576,2.425535,1.380584
1762522934.055910,2.291560,1.570882
1762522934.089243,1.961010,1.617021
1762522934.122577,1.483154,1.528279
1762522934.155910,1.157940,1.335193
1762522934.189244,0.930136,1.081585
1762522934.222578,0.860408,0.812282
1762522934.255911,0.695569,0.561025
1762522934.289245,0.570258,0.343413
1762522934.322579,0.293415,0.157632
1762522934.355912,0.083368,-0.007883
1762522934.389246,-0.149113,-0.164104
1762522934.422580,-0.218782,-0.313861
1762522934.455913,-0.311758,-0.450674
1762522934.489247,-0.377590,-0.563709
1762522934.522580,-0.574170,-0.645088
1762522934.555914,-0.712795,-0.694755
1762522934.589248,-0.839445,-0.720005
1762522934.622581,-0.813379,-0.730254
1762522934.655915,-0.739230,-0.730546
1762522934.689249,-0.593350,-0.717712
1762522934.722582,-0.507235,-0.681173
1762522934.755916,-0.551725,-0.607590
1762522934.789249,-0.640668,-0.486801
1762522934.822583,-0.709237,-0.316378
1762522934.855917,-0.619273,-0.103401
1762522934.889251,-0.361858,0.136447
1762522934.922584,0.083364,0.381430
1762522934.955918,0.629897,0.606963
1762522934.989251,1.096936,0.789029
1762522935.022585,1.398119,0.907774
1762522935.055919,1.390159,0.951083
1762522935.089252,1.167450,0.917359
1762522935.122586,0.799858,0.816324
1762522935.155920,0.378672,0.666878
1762522935.189253,0.039797,0.492034
1762522935.222587,-0.127640,0.312374
1762522935.255920,-0.188070,0.140546
1762522935.289254,-0.122198,-0.020862
1762522935.322588,-0.070009,-0.177098
1762522935.355921,-0.013947,-0.335659
1762522935.389255,-0.174659,-0.499810
1762522935.422589,-0.379304,-0.663937
1762522935.455922,-0.780731,-0.812523
1762522935.489256,-1.121358,-0.922886
1762522935.522589,-1.403827,-0.970450
1762522935.555923,-1.451079,-0.934839
1762522935.589257,-1.278424,-0.805399
1762522935.622590,-0.814404,-0.585287
1762522935.655924,-0.270851,-0.293447
1762522935.689258,0.353605,0.036404
1762522935.722591,0.782721,0.360559
1762522935.755925,1.186076,0.633750
1762522935.789258,1.336174,0.819552
1762522935.822592,1.482921,0.899572
1762522935.855926,1.311434,0.877926
1762522935.889259,1.160797,0.778913
1762522935.922593,0.804066,0.638522
1762522935.955927,0.428622,0.493035
1762522935.989260,0.048074,0.369120
1762522936.022594,-0.131403,0.278856
1762522936.055928,-0.149116,0.220725
1762522936.089261,0.059258,0.184867
1762522936.122595,0.297114,0.159232
1762522936.155928,0.575001,0.133611
1762522936.189262,0.564779,0.100546
1762522936.222596,0.383095,0.054322
1762522936.255929,-0.001410,-0.009642
1762522936.289263,-0.375893,-0.093395
1762522936.322597,-0.608692,-0.193432
1762522936.355930,-0.687357,-0.298386
1762522936.389264,-0.535180,-0.390175
1762522936.422597,-0.412298,-0.449660
1762522936.455931,-0.304672,-0.464917
1762522936.489265,-0.399030,-0.438019
1762522936.522598,-0.537459,-0.386232
1762522936.555932,-0.655296,-0.336207
1762522936.589266,-0.567827,-0.313491
1762522936.622599,-0.339506,-0.332215
1762522936.655933,-0.103829,-0.389656
1762522936.689266,0.015191,-0.467655
1762522936.722600,-0.156459,-0.539352
1762522936.755934,-0.449803,-0.577503
1762522936.789268,-0.932878,-0.560853
1762522936.822601,-1.212233,-0.477170
1762522936.855935,-1.160669,-0.323702
1762522936.889268,-0.730498,-0.106718
1762522936.922602,-0.097892,0.158819
1762522936.955935,0.654949,0.449693
1762522936.989269,1.326732,0.736284
1762522937.022603,1.620351,0.986869
1762522937.055937,1.665002,1.173948
1762522937.089270,1.472423,1.280420
1762522937.122604,1.186547,1.302928
1762522937.155937,0.959047,1.250842
1762522937.189271,0.775255,1.141528
1762522937.222605,0.685062,0.994428
1762522937.255938,0.675463,0.826688
1762522937.289272,0.647638,0.651530
1762522937.322606,0.591284,0.478357
1762522937.355939,0.373402,0.312508
1762522937.389273,0.128543,0.153604
1762522937.422606,-0.224728,-0.006275
1762522937.455940,-0.486396,-0.181837
1762522937.489274,-0.674500,-0.389433
1762522937.522607,-0.567790,-0.638592
1762522937.555941,-0.447521,-0.924130
1762522937.589275,-0.348582,-1.223038
1762522937.622608,-0.570305,-1.497751
1762522937.655942,-1.084221,-1.703929
1762522937.689276,-1.771929,-1.799340
1762522937.722609,-2.086515,-1.751677
1762522937.755943,-1.967510,-1.751677
1762522937.789276,-1.189720,-1.751677
1762522937.822610,-0.115181,-1.751677
1762522937.855944,1.238392,-1.751677
1762522937.889277,0.234328,-0.211473
1762522937.922611,-0.044154,-0.254429
1762522937.955945,-0.553850,-0.322646
1762522937.989278,-1.208614,-0.379459
1762522938.022612,-1.733515,-0.379017
1762522938.055945,-1.898803,-0.282398
1762522938.089279,-1.482981,-0.074151
1762522938.122613,-0.597259,0.229700
1762522938.155946,0.606604,0.584995
1762522938.189280,1.673290,0.930319
1762522938.222614,2.383700,1.200168
1762522938.255947,2.449920,1.337642
1762522938.289281,2.037496,1.306090
1762522938.322614,1.294114,1.098880
1762522938.355948,0.583503,0.744586
1762522938.389282,-0.033098,0.303979
1762522938.422615,-0.436520,-0.142839
1762522938.455949,-0.810100,-0.516439
1762522938.489283,-1.097972,-0.758336
1762522938.522616,-1.350039,-0.843681
1762522938.555950,-1.390151,-0.781770
1762522938.589283,-1.190314,-0.605776
1762522938.622617,-0.656600,-0.358206
1762522938.655951,0.032449,-0.079833
1762522938.689284,0.743277,0.193588
1762522938.722618,1.136623,0.428361
1762522938.755952,1.242795,0.589678
1762522938.789285,1.012699,0.644319
1762522938.822619,0.731574,0.570830
1762522938.855953,0.412323,0.372671
1762522938.889286,0.203162,0.086063
1762522938.922620,-0.113217,-0.224280
1762522938.955954,-0.495398,-0.482416
1762522938.989287,-1.048445,-0.625218
1762522939.022621,-1.522069,-0.623021
1762522939.055954,-1.752774,-0.488092
1762522939.089288,-1.425147,-0.268023
1762522939.122622,-0.613210,-0.028130
1762522939.155955,0.535241,0.168903
1762522939.189289,1.482107,0.278413
1762522939.222623,1.916496,0.280623
1762522939.255956,1.516252,0.180213
1762522939.289290,0.535156,0.002192
1762522939.322623,-0.735225,-0.213208
1762522939.355957,-1.713715,-0.416451
1762522939.389291,-2.159221,-0.556865
1762522939.422624,-1.869963,-0.593720
1762522939.455958,-1.110071,-0.508056
1762522939.489292,-0.113843,-0.310634
1762522939.522625,0.705011,-0.041317
1762522939.555959,1.195202,0.241730
1762522939.589293,1.268160,0.479891
1762522939.622626,1.098683,0.632134
1762522939.655960,0.794563,0.686000
1762522939.689293,0.507404,0.657533
1762522939.722627,0.273333,0.581141
1762522939.755961,0.219525,0.494556
1762522939.789294,0.261670,0.425363
1762522939.822628,0.402278,0.383847
1762522939.855962,0.487229,0.363483
1762522939.889295,0.563520,0.347142
1762522939.922629,0.538468,0.315534
1762522939.955962,0.451382,0.254556
1762522939.989296,0.241363,0.159527
1762522940.022630,0.037944,0.035722
1762522940.055963,-0.198928,-0.104202
1762522940.089297,-0.372553,-0.244671
1762522940.122631,-0.537668,-0.372046
1762522940.155964,-0.644647,-0.478250
1762522940.189298,-0.743407,-0.561807
1762522940.222631,-0.784800,-0.625801
1762522940.255965,-0.783058,-0.673574
1762522940.289299,-0.760864,-0.704187
1762522940.322632,-0.736615,-0.709933
1762522940.355966,-0.765721,-0.677279
1762522940.389300,-0.813595,-0.591008
1762522940.422633,-0.839253,-0.439876
1762522940.455967,-0.765120,-0.221701
1762522940.489300,-0.505114,0.053541
1762522940.522634,-0.047144,0.362924
1762522940.555968,0.592385,0.671702
1762522940.589301,1.212364,0.936266
1762522940.622635,1.728452,1.109496
1762522940.655969,1.938467,1.149293
1762522940.689302,1.841384,1.029893
1762522940.722636,1.416702,0.753313
1762522940.755970,0.778815,0.356194
1762522940.789303,-0.022150,-0.092633
1762522940.822637,-0.856462,-0.505651
1762522940.855970,-1.599183,-0.798246
1762522940.889304,-2.088887,-0.911181
1762522940.922638,-2.160497,-0.825773
1762522940.955971,-1.679848,-0.566563
1762522940.989305,-0.720466,-0.191769
1762522941.022639,0.540118,0.223302
1762522941.055972,1.659375,0.602958
1762522941.089306,2.372206,0.883079
1762522941.122640,2.422777,1.017515
1762522941.155973,1.897472,0.981358
1762522941.189307,0.977651,0.773880
1762522941.222641,0.073820,0.421433
1762522941.255974,-0.598830,-0.022384
1762522941.289308,-0.963725,-0.482930
1762522941.322641,-1.140729,-0.878572
1762522941.355975,-1.293764,-1.139665
1762522941.389309,-1.483517,-1.225862
1762522941.422642,-1.699403,-1.134671
1762522941.455976,-1.734332,-0.897731
1762522941.489310,-1.404509,-0.567084
1762522941.522643,-0.687264,-0.198287
1762522941.555977,0.298428,0.162021
1762522941.589310,1.193564,0.480025
1762522941.622644,1.739811,0.731500
1762522941.655978,1.765273,0.896871
1762522941.689311,1.423767,0.960128
1762522941.722645,0.844029,0.913507
1762522941.755979,0.367021,0.764917
1762522941.789312,0.112016,0.542303
1762522941.822646,0.055030,0.290263
1762522941.855979,0.030517,0.058525
1762522941.889313,-0.036589,-0.113342
1762522941.922647,-0.243688,-0.208267
1762522941.955980,-0.489036,-0.235546
1762522941.989314,-0.648998,-0.224900
1762522942.022648,-0.564811,-0.213761
1762522942.055981,-0.317816,-0.233342
1762522942.089315,0.026094,-0.298656
1762522942.122648,0.231733,-0.405055
1762522942.155982,0.165911,-0.530823
1762522942.189316,-0.260329,-0.643397
1762522942.222649,-0.857335,-0.706725
1762522942.255983,-1.428916,-0.688360
1762522942.289317,-1.677767,-0.565996
1762522942.322650,-1.466687,-0.333379
1762522942.355984,-0.781719,-0.004687
1762522942.389318,0.188206,0.384380
1762522942.422651,1.224152,0.780448
1762522942.455985,2.057418,1.121511
1762522942.489318,2.510891,1.349347
1762522942.522652,2.435080,1.421949
1762522942.555986,1.992028,1.322447
1762522942.589319,1.234110,1.062289
1762522942.622653,0.475561,0.678439
1762522942.655987,-0.258263,0.225982
1762522942.689320,-0.739913,-0.231708
1762522942.722654,-1.080299,-0.633216
1762522942.755987,-1.260873,-0.928231
1762522942.789321,-1.403009,-1.084665
1762522942.822655,-1.471661,-1.093061
1762522942.855988,-1.469930,-0.967659
1762522942.889322,-1.280654,-0.743559
1762522942.922656,-0.917706,-0.469963
1762522942.955989,-0.323313,-0.200376
1762522942.989323,0.302788,0.018274
1762522943.022656,0.897175,0.154982
1762522943.055990,1.121849,0.200078
1762522943.089324,0.988734,0.165364
1762522943.122658,0.468980,0.079214
1762522943.155991,-0.220317,-0.021573
1762522943.189325,-0.867367,-0.100777
1762522943.222658,-1.165197,-0.130456
1762522943.255992,-0.996780,-0.095996
1762522943.289325,-0.442498,0.001908
1762522943.322659,0.284992,0.148187
1762522943.355993,0.967824,0.316709
1762522943.389327,1.356539,0.475449
1762522943.422660,1.367559,0.592906
1762522943.455994,1.029003,0.644822
1762522943.489327,0.607191,0.619848
1762522943.522661,0.212059,0.522645
1762522943.555995,0.024121,0.373209
1762522943.589328,-0.003656,0.202120
1762522943.622662,0.082062,0.042709
1762522943.655996,0.099002,-0.077632
1762522943.689329,0.003052,-0.144344
1762522943.722663,-0.218983,-0.158763
1762522943.755996,-0.407165,-0.136502
1762522943.789330,-0.522958,-0.101744
1762522943.822664,-0.452001,-0.079201
1762522943.855997,-0.209505,-0.086167
1762522943.889331,0.081001,-0.127091
1762522943.922665,0.272769,-0.192315
1762522943.955998,0.206476,-0.261315
1762522943.989332,-0.180283,-0.309369
1762522944.022666,-0.643744,-0.315481
1762522944.055999,-1.089340,-0.269104
1762522944.089333,-1.183970,-0.173743
1762522944.122666,-0.944535,-0.046599
1762522944.156000,-0.274090,0.085408
1762522944.189334,0.454844,0.191986
1762522944.222667,1.117313,0.246564
1762522944.256001,1.295188,0.232566
1762522944.289335,1.014717,0.147705
1762522944.322668,0.285374,0.005640
1762522944.356002,-0.549163,-0.165372
1762522944.389335,-1.258230,-0.327028
1762522944.422669,-1.550323,-0.438566
1762522944.456003,-1.375220,-0.466422
1762522944.489336,-0.798615,-0.393690
1762522944.522670,-0.162936,-0.226282
1762522944.556004,0.454921,0.006939
1762522944.589337,0.832037,0.260986
1762522944.622671,1.026141,0.486865
1762522944.656004,0.976835,0.645019
1762522944.689338,0.889657,0.715240
1762522944.722672,0.785363,0.699562
1762522944.756005,0.747771,0.617568
1762522944.789339,0.587393,0.496715
1762522944.822673,0.501682,0.362115
1762522944.856006,0.255527,0.229907
1762522944.889340,0.142838,0.106215
1762522944.922673,-0.059089,-0.009217
1762522944.956007,-0.133660,-0.117710
1762522944.989341,-0.211652,-0.217843
1762522945.022674,-0.220721,-0.304738
1762522945.056008,-0.345915,-0.371928
1762522945.089342,-0.423359,-0.414000
1762522945.122675,-0.561371,-0.428286
1762522945.156009,-0.577334,-0.414907
1762522945.189342,-0.560380,-0.375732
1762522945.222676,-0.487072,-0.313433
1762522945.256010,-0.355860,-0.231436
1762522945.289344,-0.135615,-0.134620
1762522945.322677,-0.078568,-0.029833
1762522945.356011,0.054181,0.074500
1762522945.389344,0.081685,0.169606
1762522945.422678,0.201658,0.247657
1762522945.456012,0.238002,0.302367
1762522945.489345,0.275432,0.328838
1762522945.522679,0.244904,0.323429
1762522945.556013,0.226833,0.284574
1762522945.589346,0.158779,0.214664
1762522945.622680,0.103230,0.121950
1762522945.656013,-0.035645,0.020868
1762522945.689347,-0.235633,-0.070242
1762522945.722681,-0.372328,-0.133667
1762522945.756014,-0.582188,-0.157460
1762522945.789348,-0.652205,-0.139154
1762522945.822682,-0.535930,-0.086632
1762522945.856015,-0.329114,-0.015872
1762522945.889349,0.002268,0.053496
1762522945.922683,0.307115,0.103334
1762522945.956016,0.513752,0.121532
1762522945.989350,0.435787,0.105217
1762522946.022683,0.243637,0.062225
1762522946.056017,-0.120685,0.010383
1762522946.089351,-0.420757,-0.026022
1762522946.122684,-0.565903,-0.022848
1762522946.156018,-0.576307,0.035105
1762522946.189352,-0.235446,0.145802
1762522946.222685,0.114427,0.286059
1762522946.256019,0.589159,0.415053
1762522946.289352,0.950107,0.485043
1762522946.322686,1.259118,0.455466
1762522946.356020,1.257229,0.305505
1762522946.389353,1.267698,0.041961
1762522946.422687,-0.183497,-0.299003
1762522946.456021,-0.753436,-0.657038
1762522946.489354,-1.342754,-0.959752
1762522946.522688,-1.923778,-1.139947
1762522946.556021,-2.135069,-1.153536
1762522946.589355,-1.968375,-0.991893
1762522946.622689,-1.252297,-0.683268
1762522946.656022,-0.291779,-0.282554
1762522946.689356,0.852333,0.145284
1762522946.722690,1.707474,0.540491
1762522946.756023,2.222074,0.857689
1762522946.789357,2.089881,1.068824
1762522946.822690,1.675198,1.162696
1762522946.856024,1.081331,1.143790
1762522946.889358,0.711230,1.031027
1762522946.922691,0.490630,0.854925
1762522946.956025,0.621459,0.651351
1762522946.989359,0.718358,0.452065
1762522947.022692,0.786339,0.275136
1762522947.056026,0.511174,0.119911
1762522947.089360,0.169651,-0.030058
1762522947.122693,-0.312866,-0.196404
1762522947.156027,-0.563082,-0.392160
1762522947.189360,-0.756314,-0.611447
1762522947.222694,-0.742312,-0.827868
1762522947.256028,-0.875949,-1.002389
1762522947.289361,-1.043779,-1.096652
1762522947.322695,-1.392498,-1.085208
1762522947.356029,-1.584181,-0.961490
1762522947.389362,-1.617337,-0.736354
1762522947.422696,-1.195979,-0.432269
1762522947.456030,-0.511484,-0.077955
1762522947.489363,0.403187,0.293398
1762522947.522697,1.152499,0.643023
1762522947.556031,1.679242,0.926496
1762522947.589364,1.757782,1.098820
1762522947.622698,1.621542,1.125549
1762522947.656031,1.267263,0.996162
1762522947.689365,0.905783,0.732920
1762522947.722699,0.410880,0.389374
1762522947.756032,-0.071097,0.037207
1762522947.789366,-0.646471,-0.254117
1762522947.822700,-1.093243,-0.436891
1762522947.856033,-1.389292,-0.496280
1762522947.889367,-1.281441,-0.449586
1762522947.922700,-0.843249,-0.335530
1762522947.956034,-0.099198,-0.199247
1762522947.989368,0.571692,-0.079303
1762522948.022701,1.035875,-0.000569
1762522948.056035,1.001027,0.026912
1762522948.089369,0.572667,0.005686
1762522948.122702,-0.132491,-0.051853
1762522948.156036,-0.700596,-0.125600
1762522948.189369,-0.980954,-0.190243
1762522948.222703,-0.847175,-0.219802
1762522948.256037,-0.446925,-0.194551
1762522948.289370,0.078486,-0.108338
1762522948.322704,0.496597,0.027308
1762522948.356038,0.695984,0.185290
1762522948.389371,0.675419,0.331370
1762522948.422705,0.605625,0.435669
1762522948.456038,0.513283,0.482159
1762522948.489372,0.486577,0.472014
1762522948.522706,0.455852,0.419778
1762522948.556039,0.452468,0.344893
1762522948.589373,0.380956,0.263147
1762522948.622707,0.281863,0.182073
1762522948.656040,0.115457,0.101678
1762522948.689374,0.003251,0.018856
1762522948.722708,-0.089870,-0.067805
1762522948.756041,-0.131650,-0.155700
1762522948.789375,-0.227959,-0.239285
1762522948.822708,-0.293543,-0.313219
1762522948.856042,-0.405878,-0.375084
1762522948.889376,-0.487001,-0.425695
1762522948.922709,-0.558739,-0.466819
1762522948.956043,-0.551924,-0.497845
1762522948.989377,-0.517244,-0.513582
1762522949.022710,-0.505285,-0.504528
1762522949.056044,-0.525283,-0.459555
1762522949.089377,-0.557137,-0.369744
1762522949.122711,-0.507634,-0.231759
1762522949.156045,-0.394193,-0.049604
1762522949.189378,-0.151022,0.165499
1762522949.222712,0.196699,0.396635
1762522949.256046,0.631096,0.623396
1762522949.289379,1.036025,0.824203
1762522949.322713,1.310259,0.978521
1762522949.356046,1.426394,1.068937
1762522949.389380,1.379340,1.083222
1762522949.422714,1.196007,1.016308
1762522949.456048,0.908867,0.871798
1762522949.489381,0.626143,0.662243
1762522949.522715,0.352203,0.407519
1762522949.556048,0.109621,0.131127
1762522949.589382,-0.163572,-0.144852
1762522949.622716,-0.410941,-0.404510
1762522949.656049,-0.697586,-0.640432
1762522949.689383,-0.948899,-0.852109
1762522949.722717,-1.172129,-1.040714
1762522949.756050,-1.246409,-1.202600
1762522949.789384,-1.280403,-1.324889
1762522949.822717,-1.289676,-1.385822
1762522949.856051,-1.361271,-1.360333
1762522949.889385,-1.414310,-1.228719
1762522949.922718,-1.390918,-0.984704
1762522949.956052,-1.185617,-0.639585
1762522949.989386,-0.702328,-0.221218
1762522950.022719,0.049237,0.231065
1762522950.056053,0.985958,0.673205
1762522950.089386,1.827432,1.062768
1762522950.122720,2.359276,1.364051
1762522950.156054,2.520601,1.552075
1762522950.189387,2.315364,1.615723
1762522950.222721,1.892693,1.559525
1762522950.256055,1.339947,1.402969
1762522950.289388,0.908395,1.176497
1762522950.322722,0.587797,0.914758
1762522950.356055,0.414801,0.649197
1762522950.389389,0.301423,0.402504
1762522950.422723,0.218993,0.186529
1762522950.456056,0.090924,0.003587
1762522950.489390,-0.109811,-0.150450
1762522950.522724,-0.384032,-0.283352
1762522950.556057,-0.602848,-0.405142
1762522950.589391,-0.798342,-0.527535
1762522950.622725,-0.906402,-0.662413
1762522950.656058,-0.978326,-0.818035
1762522950.689392,-0.960003,-0.993601
1762522950.722725,-0.957015,-1.174828
1762522950.756059,-1.096462,-1.333654
1762522950.789393,-1.418878,-1.433576
1762522950.822726,-1.853183,-1.439240
1762522950.856060,-2.177947,-1.326520
1762522950.889394,-2.232531,-1.089172
1762522950.922727,-1.815286,-0.740260
1762522950.956061,-0.951430,-0.309204
1762522950.989394,0.201210,0.163201
1762522951.022728,1.336046,0.629974
1762522951.056062,2.083458,1.043067
1762522951.089395,2.425535,1.359169
1762522951.122729,2.291560,1.546585
1762522951.156063,1.961010,1.592024
1762522951.189396,1.483154,1.504626
1762522951.222730,1.157940,1.314465
1762522951.256063,0.930136,1.064699
1762522951.289397,0.860408,0.799475
1762522951.322731,0.695569,0.552024
1762522951.356064,0.570258,0.337709
1762522951.389398,0.293415,0.154742
1762522951.422732,0.083368,-0.008266
1762522951.456065,-0.149113,-0.162121
1762522951.489399,-0.218782,-0.309609
1762522951.522732,-0.311758,-0.444350
1762522951.556066,-0.377590,-0.555673
1762522951.589400,-0.574170,-0.635819
1762522951.622734,-0.712795,-0.684734
1762522951.656067,-0.839445,-0.709601
1762522951.689401,-0.813379,-0.719695
1762522951.722734,-0.739230,-0.719982
1762522951.756068,-0.593350,-0.707343
1762522951.789402,-0.507235,-0.671357
1762522951.822735,-0.551725,-0.598889
1762522951.856069,-0.640668,-0.479930
1762522951.889403,-0.709237,-0.312089
1762522951.922736,-0.619273,-0.102337
